time,ecg_signal
0.0,-0.088
0.002,-0.049
0.004,-0.073
0.006,-0.098
0.008,-0.117
0.01,-0.112
0.012,-0.093
0.014,-0.063
0.016,-0.063
0.018,-0.063
0.02,-0.039
0.022,-0.034
0.024,-0.083
0.026,-0.102
0.028,-0.107
0.03,-0.132
0.032,-0.117
0.034,-0.107
0.036,-0.117
0.038,-0.093
0.04,-0.054
0.042,-0.054
0.044,-0.059
0.046,-0.024
0.048,-0.034
0.05,-0.034
0.052,-0.044
0.054,-0.039
0.056,-0.049
0.058,-0.029
0.06,-0.054
0.062,-0.054
0.064,-0.034
0.066,-0.015
0.068,0.015
0.07,0.005
0.072,-0.034
0.074,-0.034
0.076,-0.068
0.078,-0.059
0.08,0.024
0.082,0.063
0.084,0.024
0.086,-0.029
0.088,-0.049
0.09,-0.049
0.092,-0.054
0.094,-0.005
0.096,-0.01
0.098,-0.039
0.1,-0.01
0.102,0.005
0.104,-0.015
0.106,0.0
0.108,-0.02
0.11,-0.073
0.112,-0.068
0.114,-0.054
0.116,-0.054
0.118,-0.039
0.12,-0.02
0.122,-0.029
0.124,-0.068
0.126,-0.059
0.128,-0.073
0.13,-0.059
0.132,-0.034
0.134,-0.005
0.136,0.02
0.138,0.024
0.14,0.024
0.142,0.059
0.144,0.034
0.146,-0.005
0.148,0.015
0.15,0.0
0.152,-0.039
0.154,-0.01
0.156,0.005
0.158,0.0
0.16,-0.005
0.162,0.02
0.164,-0.005
0.166,-0.034
0.168,-0.034
0.17,-0.02
0.172,0.01
0.174,0.024
0.176,0.024
0.178,0.02
0.18,0.02
0.182,0.01
0.184,0.01
0.186,0.024
0.188,0.039
0.19,-0.02
0.192,-0.034
0.194,-0.024
0.196,-0.02
0.198,-0.02
0.2,0.01
0.202,0.01
0.204,-0.005
0.206,0.01
0.208,0.0
0.21,-0.024
0.212,-0.01
0.214,0.005
0.216,0.0
0.218,0.034
0.22,0.044
0.222,0.073
0.224,0.088
0.226,0.049
0.228,0.034
0.23,0.005
0.232,-0.005
0.234,0.015
0.236,0.054
0.238,0.054
0.24,0.024
0.242,-0.01
0.244,-0.01
0.246,0.034
0.248,0.039
0.25,-0.01
0.252,-0.024
0.254,0.01
0.256,0.063
0.258,0.083
0.26,0.049
0.262,0.039
0.264,0.063
0.266,0.078
0.268,0.049
0.27,-0.005
0.272,0.005
0.274,0.02
0.276,0.039
0.278,0.029
0.28,0.02
0.282,-0.02
0.284,-0.039
0.286,-0.044
0.288,-0.102
0.29,-0.083
0.292,-0.117
0.294,-0.156
0.296,-0.132
0.298,-0.093
0.3,-0.034
0.302,-0.029
0.304,-0.044
0.306,0.024
0.308,0.112
0.31,0.181
0.312,0.342
0.314,0.449
0.316,0.493
0.318,0.566
0.32,0.634
0.322,0.61
0.324,0.551
0.326,0.498
0.328,0.464
0.33,0.4
0.332,0.307
0.334,0.259
0.336,0.268
0.338,0.371
0.34,0.4
0.342,0.332
0.344,0.303
0.346,0.249
0.348,0.166
0.35,0.132
0.352,0.127
0.354,0.146
0.356,0.112
0.358,0.107
0.36,0.137
0.362,0.102
0.364,0.044
0.366,0.015
0.368,0.015
0.37,0.054
0.372,0.088
0.374,0.059
0.376,0.044
0.378,0.029
0.38,0.02
0.382,0.034
0.384,0.039
0.386,0.034
0.388,0.02
0.39,-0.02
0.392,-0.044
0.394,-0.054
0.396,-0.034
0.398,-0.044
0.4,-0.083
0.402,-0.015
0.404,-0.01
0.406,-0.044
0.408,-0.039
0.41,-0.068
0.412,-0.063
0.414,-0.049
0.416,-0.063
0.418,-0.054
0.42,-0.02
0.422,-0.029
0.424,-0.044
0.426,-0.068
0.428,-0.078
0.43,-0.107
0.432,-0.117
0.434,-0.122
0.436,-0.098
0.438,-0.093
0.44,-0.083
0.442,-0.073
0.444,-0.078
0.446,-0.073
0.448,-0.073
0.45,-0.083
0.452,-0.088
0.454,-0.063
0.456,-0.029
0.458,-0.049
0.46,-0.024
0.462,-0.044
0.464,-0.088
0.466,-0.083
0.468,-0.078
0.47,-0.112
0.472,-0.156
0.474,-0.137
0.476,-0.098
0.478,-0.093
0.48,-0.098
0.482,-0.107
0.484,-0.078
0.486,-0.059
0.488,-0.059
0.49,-0.093
0.492,-0.088
0.494,-0.107
0.496,-0.098
0.498,-0.083
0.5,-0.059
0.502,-0.093
0.504,-0.127
0.506,-0.127
0.508,-0.088
0.51,-0.083
0.512,-0.093
0.514,-0.098
0.516,-0.117
0.518,-0.102
0.52,-0.073
0.522,-0.078
0.524,-0.063
0.526,-0.078
0.528,-0.127
0.53,-0.132
0.532,-0.146
0.534,-0.132
0.536,-0.093
0.538,-0.161
0.54,-0.161
0.542,-0.117
0.544,-0.088
0.546,-0.078
0.548,-0.102
0.55,-0.122
0.552,-0.107
0.554,-0.117
0.556,-0.132
0.558,-0.127
0.56,-0.088
0.562,-0.078
0.564,-0.093
0.566,-0.127
0.568,-0.122
0.57,-0.107
0.572,-0.122
0.574,-0.127
0.576,-0.107
0.578,-0.063
0.58,-0.024
0.582,0.01
0.584,0.024
0.586,-0.01
0.588,-0.059
0.59,-0.107
0.592,-0.117
0.594,-0.073
0.596,-0.034
0.598,-0.029
0.6,-0.005
0.602,-0.01
0.604,-0.005
0.606,0.005
0.608,-0.015
0.61,-0.083
0.612,-0.146
0.614,-0.132
0.616,-0.039
0.618,0.024
0.62,0.044
0.622,0.054
0.624,0.02
0.626,-0.005
0.628,-0.039
0.63,-0.039
0.632,-0.015
0.634,-0.005
0.636,-0.024
0.638,-0.024
0.64,0.024
0.642,0.054
0.644,0.039
0.646,0.029
0.648,0.01
0.65,-0.015
0.652,-0.029
0.654,-0.024
0.656,-0.034
0.658,-0.01
0.66,0.005
0.662,-0.015
0.664,-0.024
0.666,-0.034
0.668,-0.015
0.67,-0.039
0.672,-0.054
0.674,-0.01
0.676,-0.015
0.678,-0.01
0.68,0.01
0.682,-0.029
0.684,-0.039
0.686,-0.034
0.688,-0.024
0.69,-0.039
0.692,-0.044
0.694,-0.054
0.696,-0.049
0.698,-0.005
0.7,0.039
0.702,0.024
0.704,0.015
0.706,0.01
0.708,-0.005
0.71,-0.034
0.712,-0.034
0.714,-0.015
0.716,-0.024
0.718,-0.054
0.72,-0.039
0.722,-0.02
0.724,-0.029
0.726,-0.039
0.728,-0.029
0.73,-0.044
0.732,-0.02
0.734,-0.01
0.736,0.01
0.738,-0.044
0.74,-0.073
0.742,-0.034
0.744,-0.01
0.746,-0.015
0.748,-0.034
0.75,-0.078
0.752,-0.117
0.754,-0.073
0.756,0.015
0.758,0.059
0.76,0.068
0.762,0.049
0.764,-0.015
0.766,-0.034
0.768,0.01
0.77,0.0
0.772,-0.005
0.774,0.034
0.776,0.015
0.778,-0.029
0.78,0.0
0.782,0.015
0.784,0.02
0.786,0.01
0.788,0.01
0.79,-0.005
0.792,-0.029
0.794,-0.024
0.796,-0.029
0.798,-0.015
0.8,0.063
0.802,0.063
0.804,0.0
0.806,0.0
0.808,-0.034
0.81,-0.063
0.812,-0.063
0.814,-0.073
0.816,-0.034
0.818,0.034
0.82,0.034
0.822,-0.01
0.824,-0.044
0.826,-0.034
0.828,-0.015
0.83,-0.039
0.832,-0.059
0.834,-0.059
0.836,-0.054
0.838,-0.024
0.84,-0.01
0.842,0.02
0.844,0.02
0.846,0.015
0.848,0.0
0.85,-0.01
0.852,-0.044
0.854,-0.024
0.856,-0.015
0.858,-0.01
0.86,-0.005
0.862,0.02
0.864,0.044
0.866,0.01
0.868,-0.029
0.87,-0.098
0.872,-0.146
0.874,-0.093
0.876,-0.024
0.878,0.029
0.88,0.039
0.882,0.039
0.884,0.02
0.886,-0.005
0.888,-0.054
0.89,-0.073
0.892,-0.083
0.894,-0.078
0.896,-0.068
0.898,-0.024
0.9,0.01
0.902,0.01
0.904,0.015
0.906,0.005
0.908,0.0
0.91,-0.01
0.912,-0.034
0.914,-0.044
0.916,-0.029
0.918,0.015
0.92,0.054
0.922,0.063
0.924,0.044
0.926,0.005
0.928,-0.054
0.93,-0.049
0.932,-0.029
0.934,-0.02
0.936,0.024
0.938,0.039
0.94,0.005
0.942,-0.034
0.944,-0.044
0.946,-0.063
0.948,-0.024
0.95,-0.02
0.952,-0.029
0.954,-0.02
0.956,-0.024
0.958,-0.015
0.96,0.029
0.962,-0.01
0.964,-0.024
0.966,0.015
0.968,0.024
0.97,-0.005
0.972,-0.049
0.974,-0.049
0.976,-0.044
0.978,-0.044
0.98,0.0
0.982,0.059
0.984,0.024
0.986,-0.049
0.988,-0.039
0.99,-0.068
0.992,-0.073
0.994,-0.078
0.996,-0.049
0.998,-0.024
1.0,-0.049
1.002,-0.054
1.004,-0.039
1.006,-0.024
1.008,-0.024
1.01,-0.039
1.012,-0.068
1.014,-0.102
1.016,-0.063
1.018,-0.015
1.02,0.02
1.022,0.029
1.024,0.015
1.026,0.015
1.028,0.024
1.03,0.01
1.032,0.0
1.034,0.015
1.036,-0.02
1.038,-0.059
1.04,-0.059
1.042,-0.01
1.044,0.015
1.046,-0.005
1.048,-0.029
1.05,-0.024
1.052,0.0
1.054,0.024
1.056,0.015
1.058,0.0
1.06,0.054
1.062,0.078
1.064,0.044
1.066,0.02
1.068,-0.015
1.07,-0.01
1.072,0.0
1.074,0.029
1.076,0.02
1.078,0.024
1.08,0.034
1.082,0.024
1.084,0.024
1.086,0.024
1.088,-0.015
1.09,-0.054
1.092,-0.039
1.094,-0.02
1.096,-0.024
1.098,-0.005
1.1,0.02
1.102,0.02
1.104,0.0
1.106,-0.005
1.108,-0.039
1.11,-0.068
1.112,-0.059
1.114,-0.044
1.116,-0.015
1.118,0.029
1.12,0.02
1.122,-0.015
1.124,0.02
1.126,0.02
1.128,0.005
1.13,-0.005
1.132,-0.039
1.134,-0.044
1.136,-0.044
1.138,-0.024
1.14,0.034
1.142,0.015
1.144,0.0
1.146,0.005
1.148,-0.015
1.15,-0.005
1.152,-0.02
1.154,-0.024
1.156,-0.01
1.158,0.0
1.16,0.005
1.162,-0.015
1.164,-0.024
1.166,0.029
1.168,0.034
1.17,0.0
1.172,-0.005
1.174,0.005
1.176,0.015
1.178,0.005
1.18,-0.044
1.182,-0.049
1.184,0.034
1.186,0.068
1.188,0.059
1.19,0.02
1.192,-0.015
1.194,-0.029
1.196,-0.024
1.198,0.0
1.2,0.015
1.202,0.044
1.204,0.034
1.206,-0.005
1.208,-0.054
1.21,-0.029
1.212,-0.034
1.214,-0.049
1.216,-0.015
1.218,-0.015
1.22,0.005
1.222,0.01
1.224,0.005
1.226,0.02
1.228,0.034
1.23,0.02
1.232,-0.02
1.234,-0.015
1.236,0.01
1.238,-0.02
1.24,-0.02
1.242,-0.005
1.244,0.0
1.246,0.02
1.248,0.015
1.25,-0.02
1.252,-0.054
1.254,-0.044
1.256,-0.034
1.258,-0.024
1.26,-0.029
1.262,-0.01
1.264,0.01
1.266,-0.02
1.268,0.005
1.27,-0.005
1.272,-0.063
1.274,-0.039
1.276,0.01
1.278,0.073
1.28,0.078
1.282,0.049
1.284,0.044
1.286,0.005
1.288,-0.039
1.29,-0.024
1.292,0.005
1.294,0.024
1.296,0.005
1.298,-0.01
1.3,0.02
1.302,0.039
1.304,0.024
1.306,-0.015
1.308,-0.044
1.31,-0.054
1.312,-0.073
1.314,-0.049
1.316,-0.024
1.318,0.015
1.32,0.054
1.322,0.049
1.324,0.044
1.326,0.059
1.328,0.029
1.33,0.01
1.332,-0.01
1.334,-0.024
1.336,-0.034
1.338,-0.039
1.34,-0.034
1.342,-0.015
1.344,-0.034
1.346,-0.005
1.348,0.01
1.35,0.0
1.352,-0.005
1.354,-0.005
1.356,0.0
1.358,0.034
1.36,0.078
1.362,0.083
1.364,0.073
1.366,0.029
1.368,-0.015
1.37,-0.034
1.372,-0.024
1.374,-0.015
1.376,0.015
1.378,0.049
1.38,0.068
1.382,0.059
1.384,0.044
1.386,0.02
1.388,-0.005
1.39,-0.039
1.392,-0.039
1.394,-0.01
1.396,0.005
1.398,0.01
1.4,0.039
1.402,0.039
1.404,0.0
1.406,0.005
1.408,0.024
1.41,0.01
1.412,-0.024
1.414,-0.029
1.416,0.02
1.418,0.044
1.42,0.049
1.422,0.059
1.424,0.005
1.426,-0.044
1.428,-0.102
1.43,-0.117
1.432,-0.122
1.434,-0.112
1.436,-0.132
1.438,-0.122
1.44,-0.073
1.442,-0.039
1.444,0.005
1.446,0.01
1.448,0.044
1.45,0.142
1.452,0.224
1.454,0.356
1.456,0.527
1.458,0.625
1.46,0.649
1.462,0.634
1.464,0.649
1.466,0.59
1.468,0.449
1.47,0.342
1.472,0.229
1.474,0.185
1.476,0.132
1.478,0.073
1.48,0.176
1.482,0.254
1.484,0.278
1.486,0.22
1.488,0.127
1.49,0.073
1.492,0.068
1.494,0.127
1.496,0.142
1.498,0.132
1.5,0.146
1.502,0.088
1.504,0.029
1.506,0.015
1.508,-0.029
1.51,-0.049
1.512,-0.054
1.514,-0.044
1.516,-0.02
1.518,-0.01
1.52,-0.02
1.522,-0.024
1.524,-0.015
1.526,-0.015
1.528,-0.029
1.53,-0.054
1.532,-0.112
1.534,-0.137
1.536,-0.112
1.538,-0.078
1.54,-0.044
1.542,-0.01
1.544,0.034
1.546,0.024
1.548,-0.049
1.55,-0.063
1.552,-0.083
1.554,-0.073
1.556,-0.068
1.558,-0.078
1.56,-0.073
1.562,-0.059
1.564,-0.044
1.566,-0.049
1.568,-0.068
1.57,-0.063
1.572,-0.098
1.574,-0.122
1.576,-0.122
1.578,-0.093
1.58,-0.039
1.582,-0.02
1.584,-0.049
1.586,-0.044
1.588,-0.044
1.59,-0.073
1.592,-0.078
1.594,-0.112
1.596,-0.102
1.598,-0.107
1.6,-0.098
1.602,-0.068
1.604,-0.068
1.606,-0.054
1.608,-0.02
1.61,-0.068
1.612,-0.098
1.614,-0.107
1.616,-0.059
1.618,-0.054
1.62,-0.088
1.622,-0.078
1.624,-0.073
1.626,-0.054
1.628,-0.078
1.63,-0.122
1.632,-0.132
1.634,-0.107
1.636,-0.102
1.638,-0.122
1.64,-0.093
1.642,-0.049
1.644,-0.029
1.646,-0.044
1.648,-0.088
1.65,-0.068
1.652,-0.068
1.654,-0.068
1.656,-0.078
1.658,-0.093
1.66,-0.059
1.662,-0.054
1.664,-0.063
1.666,-0.083
1.668,-0.093
1.67,-0.083
1.672,-0.107
1.674,-0.127
1.676,-0.137
1.678,-0.122
1.68,-0.068
1.682,-0.063
1.684,-0.083
1.686,-0.112
1.688,-0.098
1.69,-0.102
1.692,-0.112
1.694,-0.107
1.696,-0.093
1.698,-0.102
1.7,-0.112
1.702,-0.063
1.704,-0.068
1.706,-0.088
1.708,-0.073
1.71,-0.063
1.712,-0.137
1.714,-0.161
1.716,-0.132
1.718,-0.093
1.72,-0.073
1.722,-0.063
1.724,-0.02
1.726,-0.044
1.728,-0.073
1.73,-0.073
1.732,-0.078
1.734,-0.059
1.736,-0.044
1.738,-0.024
1.74,-0.049
1.742,-0.059
1.744,-0.029
1.746,-0.029
1.748,-0.054
1.75,-0.088
1.752,-0.132
1.754,-0.078
1.756,-0.039
1.758,-0.059
1.76,-0.029
1.762,-0.015
1.764,0.02
1.766,0.015
1.768,0.005
1.77,-0.01
1.772,-0.024
1.774,-0.029
1.776,-0.024
1.778,-0.024
1.78,-0.005
1.782,-0.015
1.784,0.015
1.786,0.034
1.788,0.039
1.79,0.034
1.792,0.02
1.794,0.034
1.796,0.059
1.798,0.068
1.8,0.063
1.802,0.044
1.804,0.049
1.806,0.024
1.808,0.029
1.81,0.024
1.812,0.015
1.814,0.02
1.816,0.024
1.818,0.034
1.82,0.063
1.822,0.098
1.824,0.102
1.826,0.049
1.828,0.029
1.83,0.039
1.832,0.02
1.834,0.015
1.836,0.054
1.838,0.054
1.84,0.102
1.842,0.151
1.844,0.156
1.846,0.102
1.848,0.044
1.85,0.024
1.852,0.0
1.854,0.015
1.856,0.049
1.858,0.034
1.86,0.054
1.862,0.088
1.864,0.112
1.866,0.073
1.868,0.054
1.87,0.063
1.872,0.098
1.874,0.098
1.876,0.068
1.878,0.044
1.88,0.054
1.882,0.088
1.884,0.083
1.886,0.078
1.888,0.063
1.89,0.054
1.892,0.068
1.894,0.063
1.896,0.063
1.898,0.063
1.9,0.073
1.902,0.078
1.904,0.044
1.906,0.015
1.908,-0.044
1.91,-0.005
1.912,0.054
1.914,0.088
1.916,0.073
1.918,0.029
1.92,0.054
1.922,0.054
1.924,0.083
1.926,0.142
1.928,0.098
1.93,0.054
1.932,0.068
1.934,0.063
1.936,0.068
1.938,0.073
1.94,0.054
1.942,0.078
1.944,0.073
1.946,0.034
1.948,0.049
1.95,0.054
1.952,0.039
1.954,0.029
1.956,0.039
1.958,0.054
1.96,0.059
1.962,0.063
1.964,0.049
1.966,0.039
1.968,0.039
1.97,0.034
1.972,0.02
1.974,0.044
1.976,0.063
1.978,0.112
1.98,0.142
1.982,0.112
1.984,0.083
1.986,0.083
1.988,0.063
1.99,0.049
1.992,0.059
1.994,0.073
1.996,0.054
1.998,0.078
2.0,0.137
2.002,0.161
2.004,0.146
2.006,0.093
2.008,0.044
2.01,0.044
2.012,0.029
2.014,0.039
2.016,0.073
2.018,0.098
2.02,0.117
2.022,0.093
2.024,0.044
2.026,0.01
2.028,-0.024
2.03,-0.049
2.032,-0.01
2.034,0.039
2.036,0.063
2.038,0.054
2.04,0.054
2.042,0.107
2.044,0.078
2.046,0.063
2.048,0.078
2.05,0.029
2.052,0.01
2.054,0.01
2.056,0.024
2.058,0.039
2.06,0.029
2.062,0.059
2.064,0.039
2.066,0.034
2.068,0.063
2.07,0.068
2.072,0.054
2.074,0.044
2.076,0.029
2.078,0.015
2.08,0.015
2.082,0.049
2.084,0.02
2.086,0.01
2.088,0.063
2.09,0.098
2.092,0.054
2.094,0.034
2.096,0.034
2.098,0.005
2.1,0.044
2.102,0.078
2.104,0.102
2.106,0.146
2.108,0.132
2.11,0.073
2.112,0.034
2.114,0.039
2.116,0.034
2.118,0.005
2.12,0.01
2.122,0.054
2.124,0.078
2.126,0.098
2.128,0.088
2.13,0.073
2.132,0.078
2.134,0.068
2.136,0.073
2.138,0.073
2.14,0.039
2.142,0.034
2.144,0.044
2.146,0.049
2.148,0.063
2.15,0.034
2.152,-0.005
2.154,0.024
2.156,0.029
2.158,0.039
2.16,0.039
2.162,0.044
2.164,0.034
2.166,0.005
2.168,0.005
2.17,-0.01
2.172,-0.029
2.174,-0.01
2.176,0.005
2.178,0.049
2.18,0.107
2.182,0.098
2.184,0.059
2.186,0.024
2.188,-0.005
2.19,-0.01
2.192,-0.02
2.194,-0.034
2.196,0.015
2.198,0.063
2.2,0.068
2.202,0.063
2.204,0.073
2.206,0.073
2.208,0.049
2.21,0.049
2.212,0.059
2.214,0.059
2.216,0.054
2.218,0.088
2.22,0.093
2.222,0.068
2.224,0.039
2.226,0.034
2.228,0.034
2.23,0.024
2.232,0.078
2.234,0.122
2.236,0.093
2.238,0.034
2.24,-0.02
2.242,-0.044
2.244,-0.049
2.246,-0.059
2.248,-0.068
2.25,-0.078
2.252,-0.068
2.254,-0.059
2.256,-0.063
2.258,-0.049
2.26,0.015
2.262,0.137
2.264,0.215
2.266,0.288
2.268,0.405
2.27,0.517
2.272,0.522
2.274,0.576
2.276,0.659
2.278,0.61
2.28,0.512
2.282,0.449
2.284,0.381
2.286,0.303
2.288,0.215
2.29,0.176
2.292,0.264
2.294,0.327
2.296,0.346
2.298,0.303
2.3,0.239
2.302,0.21
2.304,0.132
2.306,0.078
2.308,0.078
2.31,0.034
2.312,-0.02
2.314,0.024
2.316,0.063
2.318,0.063
2.32,0.044
2.322,0.024
2.324,0.015
2.326,0.01
2.328,0.034
2.33,0.02
2.332,-0.024
2.334,0.005
2.336,0.015
2.338,-0.015
2.34,-0.02
2.342,0.01
2.344,0.024
2.346,0.034
2.348,0.029
2.35,0.005
2.352,-0.029
2.354,-0.059
2.356,-0.063
2.358,-0.054
2.36,0.0
2.362,0.044
2.364,0.029
2.366,0.005
2.368,-0.02
2.37,-0.034
2.372,-0.034
2.374,-0.068
2.376,-0.054
2.378,0.005
2.38,0.005
2.382,-0.02
2.384,-0.005
2.386,-0.005
2.388,-0.049
2.39,-0.088
2.392,-0.093
2.394,-0.083
2.396,-0.054
2.398,-0.049
2.4,-0.034
2.402,-0.02
2.404,-0.029
2.406,-0.049
2.408,-0.015
2.41,0.01
2.412,-0.029
2.414,-0.063
2.416,-0.073
2.418,-0.049
2.42,-0.015
2.422,0.005
2.424,-0.01
2.426,-0.02
2.428,0.005
2.43,-0.01
2.432,-0.034
2.434,-0.054
2.436,-0.073
2.438,-0.073
2.44,-0.054
2.442,-0.054
2.444,-0.054
2.446,-0.029
2.448,-0.029
2.45,-0.044
2.452,-0.073
2.454,-0.049
2.456,0.015
2.458,0.015
2.46,0.01
2.462,0.0
2.464,-0.029
2.466,-0.039
2.468,-0.034
2.47,-0.059
2.472,-0.073
2.474,-0.088
2.476,-0.063
2.478,-0.044
2.48,-0.044
2.482,-0.005
2.484,0.005
2.486,-0.029
2.488,-0.049
2.49,-0.078
2.492,-0.102
2.494,-0.117
2.496,-0.102
2.498,-0.083
2.5,-0.098
2.502,-0.102
2.504,-0.083
2.506,-0.059
2.508,-0.044
2.51,-0.073
2.512,-0.142
2.514,-0.127
2.516,-0.088
2.518,-0.073
2.52,-0.034
2.522,-0.039
2.524,-0.039
2.526,-0.044
2.528,-0.088
2.53,-0.122
2.532,-0.122
2.534,-0.063
2.536,-0.024
2.538,-0.039
2.54,-0.029
2.542,-0.044
2.544,-0.024
2.546,0.0
2.548,0.01
2.55,-0.01
2.552,-0.029
2.554,-0.054
2.556,-0.068
2.558,-0.054
2.56,-0.044
2.562,0.034
2.564,0.078
2.566,0.068
2.568,0.054
2.57,-0.02
2.572,-0.063
2.574,-0.044
2.576,-0.015
2.578,0.005
2.58,-0.005
2.582,0.005
2.584,0.029
2.586,0.044
2.588,0.024
2.59,0.0
2.592,-0.034
2.594,-0.059
2.596,-0.034
2.598,0.029
2.6,0.083
2.602,0.078
2.604,0.073
2.606,0.01
2.608,-0.039
2.61,-0.034
2.612,-0.02
2.614,0.034
2.616,0.059
2.618,0.059
2.62,0.029
2.622,-0.005
2.624,0.01
2.626,0.015
2.628,0.015
2.63,0.005
2.632,-0.039
2.634,-0.034
2.636,0.024
2.638,0.029
2.64,0.024
2.642,0.063
2.644,0.088
2.646,0.063
2.648,0.034
2.65,-0.005
2.652,-0.034
2.654,-0.029
2.656,0.02
2.658,0.024
2.66,0.039
2.662,0.073
2.664,0.088
2.666,0.049
2.668,0.039
2.67,0.015
2.672,-0.029
2.674,-0.063
2.676,-0.068
2.678,-0.02
2.68,0.054
2.682,0.078
2.684,0.083
2.686,0.063
2.688,0.039
2.69,0.024
2.692,0.02
2.694,0.059
2.696,0.054
2.698,0.01
2.7,0.054
2.702,0.088
2.704,0.137
2.706,0.098
2.708,0.054
2.71,0.01
2.712,0.01
2.714,0.005
2.716,0.015
2.718,0.039
2.72,0.068
2.722,0.122
2.724,0.093
2.726,0.068
2.728,0.029
2.73,0.01
2.732,0.0
2.734,0.01
2.736,0.034
2.738,0.034
2.74,0.029
2.742,0.024
2.744,0.024
2.746,-0.005
2.748,-0.02
2.75,-0.005
2.752,0.034
2.754,0.0
2.756,-0.049
2.758,-0.029
2.76,-0.015
2.762,-0.01
2.764,0.015
2.766,-0.005
2.768,-0.02
2.77,-0.02
2.772,-0.054
2.774,-0.083
2.776,-0.054
2.778,0.005
2.78,0.078
2.782,0.117
2.784,0.098
2.786,0.054
2.788,0.034
2.79,0.01
2.792,-0.01
2.794,-0.01
2.796,0.044
2.798,0.068
2.8,0.063
2.802,0.049
2.804,0.024
2.806,0.044
2.808,0.005
2.81,-0.02
2.812,-0.015
2.814,0.034
2.816,0.073
2.818,0.063
2.82,0.044
2.822,0.049
2.824,0.034
2.826,0.039
2.828,0.073
2.83,0.068
2.832,0.059
2.834,0.039
2.836,0.01
2.838,0.049
2.84,0.083
2.842,0.093
2.844,0.063
2.846,0.029
2.848,0.015
2.85,0.0
2.852,-0.01
2.854,-0.01
2.856,0.01
2.858,0.049
2.86,0.054
2.862,0.034
2.864,0.015
2.866,0.005
2.868,0.005
2.87,0.02
2.872,0.005
2.874,-0.029
2.876,-0.044
2.878,-0.044
2.88,0.029
2.882,0.054
2.884,0.059
2.886,0.044
2.888,0.0
2.89,-0.015
2.892,-0.024
2.894,-0.029
2.896,-0.044
2.898,-0.044
2.9,-0.024
2.902,-0.024
2.904,-0.015
2.906,-0.02
2.908,-0.039
2.91,-0.068
2.912,-0.049
2.914,0.005
2.916,0.01
2.918,0.0
2.92,-0.01
2.922,0.02
2.924,0.02
2.926,-0.024
2.928,-0.015
2.93,-0.015
2.932,-0.039
2.934,-0.049
2.936,-0.024
2.938,-0.034
2.94,-0.029
2.942,-0.02
2.944,-0.024
2.946,-0.02
2.948,-0.02
2.95,-0.049
2.952,-0.059
2.954,-0.024
2.956,0.024
2.958,0.02
2.96,0.015
2.962,0.029
2.964,0.02
2.966,-0.005
2.968,-0.024
2.97,-0.029
2.972,-0.029
2.974,-0.044
2.976,-0.029
2.978,-0.005
2.98,0.015
2.982,0.044
2.984,0.039
2.986,0.02
2.988,0.005
2.99,0.024
2.992,0.02
2.994,0.01
2.996,-0.024
2.998,-0.049
3.0,-0.01
3.002,0.01
3.004,-0.005
3.006,-0.029
3.008,-0.049
3.01,-0.068
3.012,-0.073
3.014,-0.117
3.016,-0.142
3.018,-0.146
3.02,-0.151
3.022,-0.176
3.024,-0.195
3.026,-0.161
3.028,-0.122
3.03,-0.137
3.032,-0.137
3.034,-0.098
3.036,-0.02
3.038,0.054
3.04,0.151
3.042,0.278
3.044,0.454
3.046,0.551
3.048,0.551
3.05,0.576
3.052,0.551
3.054,0.478
3.056,0.42
3.058,0.366
3.06,0.317
3.062,0.278
3.064,0.22
3.066,0.185
3.068,0.244
3.07,0.268
3.072,0.22
3.074,0.146
3.076,0.142
3.078,0.132
3.08,0.127
3.082,0.142
3.084,0.127
3.086,0.117
3.088,0.078
3.09,0.054
3.092,0.01
3.094,-0.01
3.096,-0.063
3.098,-0.068
3.1,-0.024
3.102,-0.024
3.104,-0.02
3.106,-0.01
3.108,-0.039
3.11,-0.073
3.112,-0.122
3.114,-0.161
3.116,-0.142
3.118,-0.088
3.12,-0.054
3.122,-0.054
3.124,-0.044
3.126,-0.049
3.128,-0.073
3.13,-0.093
3.132,-0.137
3.134,-0.142
3.136,-0.088
3.138,-0.073
3.14,-0.102
3.142,-0.098
3.144,-0.098
3.146,-0.142
3.148,-0.137
3.15,-0.093
3.152,-0.112
3.154,-0.166
3.156,-0.156
3.158,-0.146
3.16,-0.132
3.162,-0.102
3.164,-0.093
3.166,-0.093
3.168,-0.093
3.17,-0.117
3.172,-0.122
3.174,-0.102
3.176,-0.063
3.178,-0.034
3.18,-0.054
3.182,-0.063
3.184,-0.073
3.186,-0.117
3.188,-0.098
3.19,-0.093
3.192,-0.132
3.194,-0.122
3.196,-0.127
3.198,-0.146
3.2,-0.127
3.202,-0.107
3.204,-0.083
3.206,-0.112
3.208,-0.137
3.21,-0.146
3.212,-0.142
3.214,-0.132
3.216,-0.112
3.218,-0.112
3.22,-0.098
3.222,-0.063
3.224,-0.054
3.226,-0.098
3.228,-0.137
3.23,-0.181
3.232,-0.176
3.234,-0.156
3.236,-0.161
3.238,-0.185
3.24,-0.161
3.242,-0.132
3.244,-0.122
3.246,-0.156
3.248,-0.176
3.25,-0.2
3.252,-0.2
3.254,-0.171
3.256,-0.137
3.258,-0.142
3.26,-0.146
3.262,-0.107
3.264,-0.112
3.266,-0.151
3.268,-0.171
3.27,-0.244
3.272,-0.264
3.274,-0.249
3.276,-0.224
3.278,-0.2
3.28,-0.171
3.282,-0.166
3.284,-0.151
3.286,-0.176
3.288,-0.185
3.29,-0.19
3.292,-0.181
3.294,-0.151
3.296,-0.137
3.298,-0.171
3.3,-0.146
3.302,-0.107
3.304,-0.078
3.306,-0.107
3.308,-0.137
3.31,-0.132
3.312,-0.156
3.314,-0.205
3.316,-0.166
3.318,-0.117
3.32,-0.098
3.322,-0.098
3.324,-0.102
3.326,-0.063
3.328,-0.034
3.33,-0.088
3.332,-0.117
3.334,-0.127
3.336,-0.137
3.338,-0.137
3.34,-0.102
3.342,-0.059
3.344,-0.044
3.346,-0.073
3.348,-0.093
3.35,-0.107
3.352,-0.093
3.354,-0.049
3.356,-0.029
3.358,0.0
3.36,-0.024
3.362,-0.059
3.364,-0.054
3.366,-0.073
3.368,-0.107
3.37,-0.117
3.372,-0.093
3.374,-0.088
3.376,-0.098
3.378,-0.078
3.38,-0.024
3.382,0.01
3.384,0.029
3.386,0.005
3.388,-0.063
3.39,-0.068
3.392,-0.063
3.394,-0.039
3.396,-0.01
3.398,-0.039
3.4,-0.054
3.402,-0.015
3.404,-0.044
3.406,-0.049
3.408,0.0
3.41,0.02
3.412,-0.044
3.414,-0.059
3.416,-0.068
3.418,-0.068
3.42,-0.02
3.422,0.034
3.424,0.029
3.426,-0.005
3.428,-0.005
3.43,0.005
3.432,-0.01
3.434,-0.029
3.436,-0.02
3.438,0.015
3.44,0.024
3.442,0.029
3.444,0.02
3.446,-0.01
3.448,-0.039
3.45,-0.044
3.452,-0.054
3.454,-0.054
3.456,-0.039
3.458,-0.02
3.46,-0.024
3.462,0.0
3.464,0.029
3.466,0.039
3.468,0.029
3.47,0.01
3.472,-0.02
3.474,-0.039
3.476,-0.02
3.478,-0.024
3.48,0.015
3.482,0.034
3.484,0.039
3.486,0.044
3.488,0.054
3.49,0.024
3.492,0.0
3.494,-0.01
3.496,-0.044
3.498,-0.029
3.5,0.054
3.502,0.068
3.504,0.039
3.506,0.015
3.508,0.024
3.51,0.029
3.512,-0.015
3.514,-0.01
3.516,-0.015
3.518,-0.02
3.52,-0.01
3.522,0.01
3.524,0.015
3.526,-0.029
3.528,-0.078
3.53,-0.068
3.532,-0.034
3.534,-0.01
3.536,0.0
3.538,0.029
3.54,0.029
3.542,0.0
3.544,-0.01
3.546,-0.029
3.548,-0.034
3.55,-0.02
3.552,-0.024
3.554,-0.039
3.556,-0.02
3.558,0.01
3.56,0.029
3.562,0.024
3.564,0.015
3.566,0.005
3.568,0.015
3.57,0.015
3.572,0.01
3.574,-0.01
3.576,-0.029
3.578,0.01
3.58,0.049
3.582,0.068
3.584,0.073
3.586,0.063
3.588,0.078
3.59,0.044
3.592,-0.015
3.594,-0.005
3.596,0.015
3.598,0.039
3.6,0.068
3.602,0.044
3.604,0.0
3.606,-0.044
3.608,-0.093
3.61,-0.142
3.612,-0.142
3.614,-0.112
3.616,-0.098
3.618,-0.102
3.62,-0.088
3.622,-0.059
3.624,-0.024
3.626,-0.005
3.628,0.01
3.63,0.01
3.632,0.029
3.634,0.122
3.636,0.215
3.638,0.356
3.64,0.547
3.642,0.615
3.644,0.605
3.646,0.6
3.648,0.595
3.65,0.503
3.652,0.381
3.654,0.337
3.656,0.303
3.658,0.264
3.66,0.234
3.662,0.283
3.664,0.366
3.666,0.327
3.668,0.268
3.67,0.2
3.672,0.185
3.674,0.19
3.676,0.195
3.678,0.185
3.68,0.21
3.682,0.229
3.684,0.21
3.686,0.156
3.688,0.083
3.69,0.01
3.692,-0.024
3.694,-0.024
3.696,-0.01
3.698,-0.034
3.7,-0.029
3.702,0.01
3.704,0.029
3.706,0.01
3.708,0.01
3.71,-0.049
3.712,-0.083
3.714,-0.088
3.716,-0.054
3.718,-0.015
3.72,0.029
3.722,0.02
3.724,-0.029
3.726,-0.044
3.728,-0.049
3.73,-0.044
3.732,-0.063
3.734,-0.102
3.736,-0.083
3.738,-0.059
3.74,-0.024
3.742,-0.02
3.744,-0.01
3.746,-0.029
3.748,-0.049
3.75,-0.083
3.752,-0.102
3.754,-0.093
3.756,-0.044
3.758,-0.034
3.76,-0.068
3.762,-0.034
3.764,-0.005
3.766,-0.015
3.768,-0.015
3.77,-0.039
3.772,-0.039
3.774,-0.063
3.776,-0.083
3.778,-0.078
3.78,-0.044
3.782,0.0
3.784,-0.005
3.786,-0.024
3.788,-0.054
3.79,-0.073
3.792,-0.068
3.794,-0.049
3.796,-0.034
3.798,-0.044
3.8,-0.029
3.802,-0.024
3.804,-0.024
3.806,-0.059
3.808,-0.078
3.81,-0.093
3.812,-0.102
3.814,-0.102
3.816,-0.063
3.818,-0.054
3.82,-0.039
3.822,-0.02
3.824,0.0
3.826,-0.01
3.828,-0.049
3.83,-0.107
3.832,-0.107
3.834,-0.088
3.836,-0.068
3.838,-0.049
3.84,-0.029
3.842,-0.049
3.844,-0.059
3.846,-0.068
3.848,-0.093
3.85,-0.098
3.852,-0.107
3.854,-0.151
3.856,-0.171
3.858,-0.151
3.86,-0.107
3.862,-0.102
3.864,-0.112
3.866,-0.068
3.868,-0.059
3.87,-0.107
3.872,-0.142
3.874,-0.176
3.876,-0.146
3.878,-0.098
3.88,-0.098
3.882,-0.073
3.884,-0.024
3.886,-0.029
3.888,-0.083
3.89,-0.098
3.892,-0.107
3.894,-0.132
3.896,-0.142
3.898,-0.166
3.9,-0.127
3.902,-0.073
3.904,-0.024
3.906,0.01
3.908,0.0
3.91,-0.01
3.912,-0.02
3.914,-0.015
3.916,0.015
3.918,0.015
3.92,-0.005
3.922,-0.01
3.924,-0.02
3.926,-0.034
3.928,-0.039
3.93,-0.073
3.932,-0.063
3.934,-0.039
3.936,-0.02
3.938,0.015
3.94,0.039
3.942,0.063
3.944,0.049
3.946,0.0
3.948,-0.02
3.95,-0.044
3.952,-0.044
3.954,-0.068
3.956,-0.068
3.958,-0.015
3.96,-0.029
3.962,-0.005
3.964,0.015
3.966,0.01
3.968,0.0
3.97,-0.005
3.972,-0.005
3.974,-0.02
3.976,-0.01
3.978,0.0
3.98,-0.01
3.982,-0.01
3.984,0.034
3.986,0.049
3.988,0.024
3.99,-0.005
3.992,-0.024
3.994,-0.024
3.996,0.01
3.998,0.034
4.0,0.029
4.002,0.049
4.004,0.054
4.006,0.034
4.008,-0.005
4.01,-0.034
4.012,-0.039
4.014,-0.015
4.016,0.024
4.018,0.044
4.02,0.049
4.022,0.044
4.024,0.024
4.026,0.024
4.028,0.039
4.03,0.034
4.032,0.024
4.034,0.015
4.036,0.015
4.038,0.02
4.04,0.01
4.042,0.024
4.044,0.063
4.046,0.083
4.048,0.073
4.05,0.054
4.052,0.039
4.054,0.015
4.056,0.0
4.058,-0.01
4.06,0.02
4.062,0.063
4.064,0.088
4.066,0.093
4.068,0.054
4.07,0.049
4.072,-0.01
4.074,-0.029
4.076,0.005
4.078,0.005
4.08,-0.01
4.082,-0.01
4.084,-0.02
4.086,0.015
4.088,0.059
4.09,0.039
4.092,0.024
4.094,0.034
4.096,0.01
4.098,0.024
4.1,0.024
4.102,0.015
4.104,0.0
4.106,0.0
4.108,-0.029
4.11,-0.039
4.112,-0.029
4.114,-0.024
4.116,0.01
4.118,0.024
4.12,0.024
4.122,0.02
4.124,0.039
4.126,0.034
4.128,0.029
4.13,0.02
4.132,0.044
4.134,0.068
4.136,0.083
4.138,0.098
4.14,0.083
4.142,0.078
4.144,0.073
4.146,0.054
4.148,0.02
4.15,0.015
4.152,-0.01
4.154,0.024
4.156,0.073
4.158,0.093
4.16,0.093
4.162,0.088
4.164,0.088
4.166,0.088
4.168,0.112
4.17,0.117
4.172,0.054
4.174,0.039
4.176,0.068
4.178,0.107
4.18,0.098
4.182,0.083
4.184,0.078
4.186,0.034
4.188,0.044
4.19,0.039
4.192,0.029
4.194,0.02
4.196,0.0
4.198,0.01
4.2,0.039
4.202,0.059
4.204,0.044
4.206,0.039
4.208,0.054
4.21,0.054
4.212,0.044
4.214,0.029
4.216,0.0
4.218,-0.01
4.22,0.024
4.222,0.073
4.224,0.078
4.226,0.063
4.228,0.059
4.23,0.049
4.232,-0.01
4.234,-0.039
4.236,-0.02
4.238,0.039
4.24,0.073
4.242,0.073
4.244,0.054
4.246,0.034
4.248,0.005
4.25,0.02
4.252,0.02
4.254,0.029
4.256,0.054
4.258,0.044
4.26,0.044
4.262,0.063
4.264,0.098
4.266,0.112
4.268,0.063
4.27,0.0
4.272,-0.02
4.274,0.015
4.276,0.073
4.278,0.073
4.28,0.068
4.282,0.068
4.284,0.083
4.286,0.068
4.288,0.093
4.29,0.034
4.292,-0.01
4.294,0.01
4.296,0.059
4.298,0.068
4.3,0.059
4.302,0.073
4.304,0.093
4.306,0.068
4.308,0.034
4.31,0.034
4.312,0.01
4.314,0.029
4.316,0.063
4.318,0.078
4.32,0.088
4.322,0.063
4.324,0.054
4.326,0.063
4.328,0.073
4.33,0.029
4.332,-0.01
4.334,0.005
4.336,0.01
4.338,0.039
4.34,0.059
4.342,0.102
4.344,0.127
4.346,0.102
4.348,0.093
4.35,0.024
4.352,-0.024
4.354,0.0
4.356,0.039
4.358,0.059
4.36,0.059
4.362,0.063
4.364,0.078
4.366,0.063
4.368,0.039
4.37,0.0
4.372,-0.005
4.374,0.049
4.376,0.073
4.378,0.083
4.38,0.059
4.382,0.083
4.384,0.107
4.386,0.083
4.388,0.098
4.39,0.088
4.392,0.083
4.394,0.098
4.396,0.083
4.398,0.078
4.4,0.083
4.402,0.107
4.404,0.112
4.406,0.088
4.408,0.063
4.41,0.029
4.412,0.02
4.414,0.049
4.416,0.078
4.418,0.083
4.42,0.098
4.422,0.083
4.424,0.093
4.426,0.117
4.428,0.102
4.43,0.073
4.432,0.068
4.434,0.059
4.436,0.063
4.438,0.054
4.44,0.044
4.442,0.073
4.444,0.078
4.446,0.068
4.448,0.039
4.45,0.049
4.452,0.068
4.454,0.068
4.456,0.063
4.458,0.093
4.46,0.107
4.462,0.107
4.464,0.049
4.466,0.029
4.468,0.0
4.47,-0.039
4.472,-0.088
4.474,-0.117
4.476,-0.073
4.478,-0.02
4.48,-0.02
4.482,-0.063
4.484,-0.044
4.486,-0.02
4.488,-0.02
4.49,-0.01
4.492,-0.005
4.494,-0.01
4.496,0.015
4.498,0.146
4.5,0.303
4.502,0.395
4.504,0.527
4.506,0.61
4.508,0.571
4.51,0.566
4.512,0.595
4.514,0.576
4.516,0.508
4.518,0.454
4.52,0.429
4.522,0.361
4.524,0.298
4.526,0.273
4.528,0.307
4.53,0.351
4.532,0.283
4.534,0.19
4.536,0.166
4.538,0.142
4.54,0.117
4.542,0.112
4.544,0.142
4.546,0.166
4.548,0.142
4.55,0.102
4.552,0.068
4.554,0.049
4.556,0.02
4.558,-0.029
4.56,-0.039
4.562,0.0
4.564,0.039
4.566,0.044
4.568,0.049
4.57,0.029
4.572,0.005
4.574,0.024
4.576,0.024
4.578,-0.01
4.58,-0.029
4.582,-0.039
4.584,0.02
4.586,0.054
4.588,0.02
4.59,-0.01
4.592,-0.02
4.594,-0.024
4.596,-0.029
4.598,-0.02
4.6,-0.005
4.602,-0.01
4.604,-0.015
4.606,0.01
4.608,-0.024
4.61,-0.049
4.612,-0.054
4.614,-0.059
4.616,-0.039
4.618,-0.01
4.62,0.02
4.622,0.054
4.624,0.034
4.626,0.005
4.628,-0.044
4.63,-0.034
4.632,-0.029
4.634,-0.063
4.636,-0.044
4.638,0.034
4.64,0.034
4.642,0.034
4.644,0.049
4.646,0.005
4.648,-0.024
4.65,0.005
4.652,0.005
4.654,0.0
4.656,-0.034
4.658,-0.059
4.66,-0.063
4.662,-0.024
4.664,0.02
4.666,0.02
4.668,0.015
4.67,-0.005
4.672,-0.034
4.674,-0.073
4.676,-0.059
4.678,-0.024
4.68,-0.015
4.682,-0.024
4.684,0.0
4.686,0.0
4.688,-0.039
4.69,-0.044
4.692,-0.054
4.694,-0.102
4.696,-0.063
4.698,-0.005
4.7,0.024
4.702,0.044
4.704,0.0
4.706,-0.015
4.708,-0.01
4.71,-0.01
4.712,-0.059
4.714,-0.083
4.716,-0.073
4.718,-0.049
4.72,-0.049
4.722,-0.039
4.724,-0.044
4.726,-0.039
4.728,-0.034
4.73,-0.073
4.732,-0.098
4.734,-0.093
4.736,-0.083
4.738,-0.049
4.74,-0.02
4.742,-0.01
4.744,-0.059
4.746,-0.083
4.748,-0.107
4.75,-0.112
4.752,-0.098
4.754,-0.098
4.756,-0.098
4.758,-0.088
4.76,-0.02
4.762,0.039
4.764,0.054
4.766,-0.024
4.768,-0.059
4.77,-0.068
4.772,-0.093
4.774,-0.102
4.776,-0.049
4.778,0.01
4.78,-0.005
4.782,0.005
4.784,0.039
4.786,0.024
4.788,-0.005
4.79,-0.01
4.792,-0.015
4.794,-0.039
4.796,-0.049
4.798,-0.029
4.8,-0.005
4.802,0.054
4.804,0.088
4.806,0.068
4.808,0.01
4.81,-0.029
4.812,-0.029
4.814,-0.01
4.816,0.02
4.818,0.054
4.82,0.063
4.822,0.068
4.824,0.068
4.826,0.073
4.828,0.059
4.83,0.01
4.832,-0.015
4.834,-0.015
4.836,-0.02
4.838,0.024
4.84,0.054
4.842,0.063
4.844,0.068
4.846,0.063
4.848,0.054
4.85,0.039
4.852,0.02
4.854,0.0
4.856,0.015
4.858,0.044
4.86,0.068
4.862,0.068
4.864,0.059
4.866,0.024
4.868,0.0
4.87,-0.015
4.872,-0.034
4.874,0.01
4.876,0.054
4.878,0.059
4.88,0.059
4.882,0.083
4.884,0.107
4.886,0.093
4.888,0.107
4.89,0.044
4.892,-0.005
4.894,-0.01
4.896,0.059
4.898,0.088
4.9,0.098
4.902,0.112
4.904,0.102
4.906,0.102
4.908,0.088
4.91,0.063
4.912,0.044
4.914,0.034
4.916,0.034
4.918,0.054
4.92,0.098
4.922,0.098
4.924,0.054
4.926,0.029
4.928,0.029
4.93,0.039
4.932,0.0
4.934,0.024
4.936,0.102
4.938,0.132
4.94,0.161
4.942,0.176
4.944,0.161
4.946,0.132
4.948,0.088
4.95,0.044
4.952,-0.01
4.954,-0.034
4.956,-0.01
4.958,0.044
4.96,0.093
4.962,0.146
4.964,0.151
4.966,0.132
4.968,0.156
4.97,0.127
4.972,0.078
4.974,0.068
4.976,0.063
4.978,0.078
4.98,0.132
4.982,0.112
4.984,0.039
4.986,0.024
4.988,0.049
4.99,0.078
4.992,0.054
4.994,0.029
4.996,0.049
4.998,0.088
5.0,0.078
5.002,0.127
5.004,0.166
5.006,0.127
5.008,0.117
5.01,0.088
5.012,0.044
5.014,0.039
5.016,0.034
5.018,0.029
5.02,0.059
5.022,0.063
5.024,0.068
5.026,0.088
5.028,0.102
5.03,0.068
5.032,0.034
5.034,0.044
5.036,0.068
5.038,0.093
5.04,0.093
5.042,0.098
5.044,0.112
5.046,0.102
5.048,0.059
5.05,0.034
5.052,0.0
5.054,0.005
5.056,0.093
5.058,0.151
5.06,0.122
5.062,0.093
5.064,0.093
5.066,0.093
5.068,0.107
5.07,0.083
5.072,0.034
5.074,0.029
5.076,0.059
5.078,0.083
5.08,0.112
5.082,0.117
5.084,0.137
5.086,0.122
5.088,0.005
5.09,-0.088
5.092,-0.137
5.094,-0.176
5.096,-0.122
5.098,-0.02
5.1,0.029
5.102,0.029
5.104,0.02
5.106,0.015
5.108,0.059
5.11,0.161
5.112,0.312
5.114,0.434
5.116,0.527
5.118,0.561
5.12,0.576
5.122,0.59
5.124,0.605
5.126,0.571
5.128,0.483
5.13,0.434
5.132,0.381
5.134,0.312
5.136,0.229
5.138,0.205
5.14,0.303
5.142,0.386
5.144,0.371
5.146,0.337
5.148,0.273
5.15,0.2
5.152,0.146
5.154,0.102
5.156,0.117
5.158,0.132
5.16,0.156
5.162,0.176
5.164,0.122
5.166,0.083
5.168,0.068
5.17,0.039
5.172,0.039
5.174,0.054
5.176,0.044
5.178,0.024
5.18,0.039
5.182,0.068
5.184,0.088
5.186,0.049
5.188,0.029
5.19,-0.01
5.192,-0.044
5.194,-0.063
5.196,-0.063
5.198,-0.039
5.2,-0.029
5.202,0.01
5.204,0.015
5.206,-0.005
5.208,-0.005
5.21,-0.01
5.212,-0.039
5.214,-0.063
5.216,-0.059
5.218,-0.049
5.22,0.005
5.222,-0.005
5.224,-0.059
5.226,-0.078
5.228,-0.029
5.23,-0.01
5.232,-0.02
5.234,-0.073
5.236,-0.102
5.238,-0.107
5.24,-0.093
5.242,-0.049
5.244,0.005
5.246,0.005
5.248,0.005
5.25,-0.02
5.252,-0.044
5.254,-0.044
5.256,-0.059
5.258,-0.098
5.26,-0.049
5.262,0.024
5.264,0.073
5.266,0.073
5.268,0.073
5.27,0.044
5.272,-0.02
5.274,-0.073
5.276,-0.049
5.278,-0.015
5.28,-0.029
5.282,-0.039
5.284,-0.02
5.286,-0.034
5.288,-0.059
5.29,-0.063
5.292,-0.078
5.294,-0.059
5.296,-0.044
5.298,-0.068
5.3,-0.044
5.302,-0.029
5.304,-0.029
5.306,-0.029
5.308,-0.068
5.31,-0.088
5.312,-0.093
5.314,-0.098
5.316,-0.093
5.318,-0.088
5.32,-0.078
5.322,-0.063
5.324,-0.059
5.326,-0.083
5.328,-0.068
5.33,-0.073
5.332,-0.083
5.334,-0.088
5.336,-0.102
5.338,-0.107
5.34,-0.088
5.342,-0.039
5.344,-0.005
5.346,-0.02
5.348,-0.063
5.35,-0.102
5.352,-0.102
5.354,-0.024
5.356,0.0
5.358,0.005
5.36,0.0
5.362,0.005
5.364,0.039
5.366,0.0
5.368,-0.059
5.37,-0.073
5.372,-0.078
5.374,-0.107
5.376,-0.112
5.378,-0.083
5.38,-0.034
5.382,-0.024
5.384,-0.024
5.386,-0.01
5.388,-0.024
5.39,-0.044
5.392,-0.044
5.394,-0.034
5.396,-0.049
5.398,-0.068
5.4,-0.029
5.402,0.01
5.404,0.02
5.406,0.005
5.408,0.005
5.41,-0.015
5.412,0.01
5.414,-0.005
5.416,-0.024
5.418,-0.02
5.42,0.005
5.422,0.024
5.424,0.01
5.426,0.005
5.428,0.02
5.43,-0.005
5.432,-0.029
5.434,-0.01
5.436,0.01
5.438,0.0
5.44,0.034
5.442,0.039
5.444,0.01
5.446,-0.01
5.448,0.0
5.45,0.039
5.452,0.078
5.454,0.049
5.456,0.024
5.458,0.005
5.46,0.02
5.462,0.015
5.464,0.005
5.466,0.015
5.468,0.015
5.47,-0.005
5.472,-0.015
5.474,-0.049
5.476,-0.044
5.478,-0.01
5.48,0.02
5.482,0.073
5.484,0.098
5.486,0.063
5.488,0.029
5.49,-0.01
5.492,-0.015
5.494,-0.005
5.496,0.01
5.498,0.0
5.5,-0.005
5.502,0.0
5.504,-0.01
5.506,-0.024
5.508,-0.039
5.51,-0.044
5.512,-0.044
5.514,-0.039
5.516,-0.029
5.518,-0.01
5.52,-0.005
5.522,0.005
5.524,0.054
5.526,0.044
5.528,0.039
5.53,0.068
5.532,0.073
5.534,0.054
5.536,0.034
5.538,0.049
5.54,0.039
5.542,0.039
5.544,0.034
5.546,0.029
5.548,-0.015
5.55,-0.078
5.552,-0.093
5.554,-0.059
5.556,0.0
5.558,0.039
5.56,-0.005
5.562,-0.063
5.564,-0.073
5.566,-0.098
5.568,-0.171
5.57,-0.205
5.572,-0.176
5.574,-0.181
5.576,-0.156
5.578,-0.107
5.58,-0.088
5.582,-0.078
5.584,-0.01
5.586,0.044
5.588,0.107
5.59,0.244
5.592,0.386
5.594,0.449
5.596,0.468
5.598,0.468
5.6,0.498
5.602,0.512
5.604,0.429
5.606,0.322
5.608,0.259
5.61,0.181
5.612,0.137
5.614,0.185
5.616,0.273
5.618,0.307
5.62,0.293
5.622,0.2
5.624,0.151
5.626,0.132
5.628,0.195
5.63,0.273
5.632,0.283
5.634,0.21
5.636,0.22
5.638,0.195
5.64,0.132
5.642,0.117
5.644,0.054
5.646,0.01
5.648,-0.01
5.65,-0.039
5.652,-0.063
5.654,-0.063
5.656,-0.049
5.658,-0.029
5.66,-0.01
5.662,0.005
5.664,-0.015
5.666,-0.029
5.668,-0.063
5.67,-0.083
5.672,-0.044
5.674,-0.054
5.676,-0.073
5.678,-0.083
5.68,-0.093
5.682,-0.107
5.684,-0.054
5.686,-0.005
5.688,-0.029
5.69,-0.068
5.692,-0.102
5.694,-0.132
5.696,-0.107
5.698,-0.107
5.7,-0.117
5.702,-0.088
5.704,-0.049
5.706,-0.02
5.708,-0.02
5.71,-0.029
5.712,-0.005
5.714,-0.02
5.716,-0.029
5.718,-0.068
5.72,-0.093
5.722,-0.107
5.724,-0.093
5.726,-0.044
5.728,-0.039
5.73,-0.054
5.732,-0.068
5.734,-0.102
5.736,-0.146
5.738,-0.137
5.74,-0.112
5.742,-0.098
5.744,-0.068
5.746,-0.059
5.748,-0.068
5.75,-0.083
5.752,-0.107
5.754,-0.122
5.756,-0.132
5.758,-0.176
5.76,-0.181
5.762,-0.117
5.764,-0.073
5.766,-0.063
5.768,-0.054
5.77,-0.063
5.772,-0.102
5.774,-0.146
5.776,-0.146
5.778,-0.166
5.78,-0.171
5.782,-0.176
5.784,-0.176
5.786,-0.137
5.788,-0.102
5.79,-0.117
5.792,-0.132
5.794,-0.171
5.796,-0.171
5.798,-0.156
5.8,-0.112
5.802,-0.112
5.804,-0.093
5.806,-0.073
5.808,-0.122
5.81,-0.137
5.812,-0.146
5.814,-0.176
5.816,-0.181
5.818,-0.195
5.82,-0.185
5.822,-0.161
5.824,-0.146
5.826,-0.122
5.828,-0.142
5.83,-0.156
5.832,-0.127
5.834,-0.122
5.836,-0.132
5.838,-0.112
5.84,-0.107
5.842,-0.098
5.844,-0.063
5.846,-0.073
5.848,-0.073
5.85,-0.054
5.852,-0.049
5.854,-0.117
5.856,-0.146
5.858,-0.083
5.86,-0.073
5.862,-0.054
5.864,-0.01
5.866,-0.029
5.868,-0.054
5.87,-0.054
5.872,-0.063
5.874,-0.068
5.876,-0.098
5.878,-0.088
5.88,-0.073
5.882,-0.049
5.884,0.01
5.886,-0.005
5.888,-0.029
5.89,-0.024
5.892,-0.054
5.894,-0.063
5.896,-0.039
5.898,-0.005
5.9,-0.005
5.902,0.015
5.904,0.049
5.906,0.039
5.908,0.039
5.91,0.029
5.912,0.0
5.914,-0.029
5.916,-0.034
5.918,-0.029
5.92,-0.039
5.922,-0.024
5.924,0.005
5.926,-0.02
5.928,-0.059
5.93,-0.063
5.932,-0.044
5.934,-0.015
5.936,-0.02
5.938,-0.049
5.94,-0.044
5.942,0.0
5.944,0.044
5.946,0.01
5.948,-0.029
5.95,-0.059
5.952,-0.068
5.954,-0.039
5.956,-0.029
5.958,-0.039
5.96,-0.054
5.962,-0.059
5.964,-0.034
5.966,0.02
5.968,-0.01
5.97,-0.039
5.972,-0.063
5.974,-0.054
5.976,-0.029
5.978,-0.044
5.98,-0.049
5.982,-0.02
5.984,0.01
5.986,-0.029
5.988,-0.01
5.99,-0.02
5.992,-0.044
5.994,-0.068
5.996,-0.059
5.998,-0.034
6.0,-0.029
6.002,0.005
6.004,0.044
6.006,0.015
6.008,-0.039
6.01,-0.073
6.012,-0.073
6.014,-0.049
6.016,-0.02
6.018,-0.02
6.02,-0.039
6.022,-0.015
6.024,0.059
6.026,0.063
6.028,0.039
6.03,-0.02
6.032,-0.059
6.034,-0.059
6.036,-0.054
6.038,-0.059
6.04,-0.049
6.042,-0.029
6.044,-0.034
6.046,-0.034
6.048,-0.015
6.05,0.0
6.052,-0.024
6.054,-0.063
6.056,-0.054
6.058,-0.059
6.06,-0.068
6.062,-0.063
6.064,-0.063
6.066,-0.049
6.068,-0.049
6.07,-0.02
6.072,-0.034
6.074,-0.049
6.076,-0.015
6.078,0.01
6.08,-0.02
6.082,-0.063
6.084,-0.083
6.086,-0.068
6.088,-0.068
6.09,-0.083
6.092,-0.122
6.094,-0.117
6.096,-0.102
6.098,-0.068
6.1,-0.034
6.102,-0.024
6.104,-0.01
6.106,-0.02
6.108,-0.073
6.11,-0.068
6.112,-0.01
6.114,-0.029
6.116,-0.107
6.118,-0.098
6.12,-0.044
6.122,-0.039
6.124,-0.005
6.126,-0.015
6.128,-0.044
6.13,-0.088
6.132,-0.146
6.134,-0.117
6.136,-0.039
6.138,-0.005
6.14,-0.01
6.142,-0.015
6.144,0.0
6.146,-0.044
6.148,-0.063
6.15,-0.063
6.152,-0.054
6.154,-0.005
6.156,0.02
6.158,0.005
6.16,-0.024
6.162,0.0
6.164,-0.01
6.166,-0.005
6.168,0.0
6.17,-0.054
6.172,-0.112
6.174,-0.127
6.176,-0.117
6.178,-0.098
6.18,-0.088
6.182,-0.088
6.184,-0.078
6.186,-0.088
6.188,-0.093
6.19,-0.054
6.192,-0.059
6.194,-0.063
6.196,-0.117
6.198,-0.112
6.2,-0.063
6.202,-0.034
6.204,-0.039
6.206,-0.078
6.208,-0.083
6.21,-0.093
6.212,-0.127
6.214,-0.132
6.216,-0.122
6.218,-0.107
6.22,-0.098
6.222,-0.102
6.224,-0.127
6.226,-0.088
6.228,-0.02
6.23,0.005
6.232,-0.02
6.234,-0.068
6.236,-0.078
6.238,-0.063
6.24,-0.024
6.242,-0.039
6.244,-0.044
6.246,-0.034
6.248,-0.02
6.25,-0.02
6.252,-0.02
6.254,-0.049
6.256,-0.068
6.258,-0.112
6.26,-0.107
6.262,-0.093
6.264,-0.059
6.266,-0.039
6.268,-0.039
6.27,-0.059
6.272,-0.044
6.274,-0.054
6.276,-0.024
6.278,-0.01
6.28,-0.063
6.282,-0.093
6.284,-0.059
6.286,-0.063
6.288,-0.049
6.29,-0.039
6.292,-0.063
6.294,-0.073
6.296,-0.073
6.298,-0.039
6.3,-0.02
6.302,-0.034
6.304,-0.063
6.306,-0.098
6.308,-0.093
6.31,-0.107
6.312,-0.122
6.314,-0.112
6.316,-0.073
6.318,-0.044
6.32,-0.044
6.322,-0.063
6.324,-0.059
6.326,-0.034
6.328,-0.039
6.33,-0.063
6.332,-0.068
6.334,-0.083
6.336,-0.093
6.338,-0.093
6.34,-0.083
6.342,-0.078
6.344,-0.078
6.346,-0.039
6.348,-0.01
6.35,-0.02
6.352,-0.098
6.354,-0.176
6.356,-0.195
6.358,-0.171
6.36,-0.107
6.362,-0.102
6.364,-0.102
6.366,-0.093
6.368,-0.107
6.37,-0.122
6.372,-0.117
6.374,-0.127
6.376,-0.127
6.378,-0.102
6.38,-0.102
6.382,-0.034
6.384,0.117
6.386,0.249
6.388,0.42
6.39,0.566
6.392,0.537
6.394,0.517
6.396,0.556
6.398,0.503
6.4,0.429
6.402,0.361
6.404,0.283
6.406,0.244
6.408,0.132
6.41,0.063
6.412,0.122
6.414,0.185
6.416,0.205
6.418,0.171
6.42,0.151
6.422,0.098
6.424,0.034
6.426,0.044
6.428,0.024
6.43,0.005
6.432,0.005
6.434,-0.039
6.436,-0.112
6.438,-0.098
6.44,-0.088
6.442,-0.122
6.444,-0.078
6.446,-0.054
6.448,-0.054
6.45,-0.073
6.452,-0.117
6.454,-0.122
6.456,-0.127
6.458,-0.151
6.46,-0.156
6.462,-0.137
6.464,-0.127
6.466,-0.161
6.468,-0.132
6.47,-0.107
6.472,-0.132
6.474,-0.142
6.476,-0.112
6.478,-0.098
6.48,-0.088
6.482,-0.078
6.484,-0.078
6.486,-0.073
6.488,-0.059
6.49,-0.049
6.492,-0.049
6.494,-0.102
6.496,-0.146
6.498,-0.151
6.5,-0.107
6.502,-0.078
6.504,-0.039
6.506,-0.015
6.508,-0.054
6.51,-0.107
6.512,-0.137
6.514,-0.132
6.516,-0.078
6.518,-0.068
6.52,-0.044
6.522,0.0
6.524,-0.01
6.526,-0.068
6.528,-0.102
6.53,-0.132
6.532,-0.171
6.534,-0.166
6.536,-0.093
6.538,-0.068
6.54,-0.112
6.542,-0.122
6.544,-0.093
6.546,-0.068
6.548,-0.063
6.55,-0.088
6.552,-0.151
6.554,-0.171
6.556,-0.176
6.558,-0.171
6.56,-0.171
6.562,-0.146
6.564,-0.107
6.566,-0.117
6.568,-0.122
6.57,-0.132
6.572,-0.122
6.574,-0.127
6.576,-0.151
6.578,-0.132
6.58,-0.078
6.582,-0.068
6.584,-0.088
6.586,-0.117
6.588,-0.122
6.59,-0.151
6.592,-0.156
6.594,-0.132
6.596,-0.146
6.598,-0.166
6.6,-0.161
6.602,-0.142
6.604,-0.112
6.606,-0.093
6.608,-0.102
6.61,-0.117
6.612,-0.132
6.614,-0.161
6.616,-0.132
6.618,-0.102
6.62,-0.112
6.622,-0.044
6.624,-0.034
6.626,-0.039
6.628,-0.088
6.63,-0.102
6.632,-0.122
6.634,-0.161
6.636,-0.156
6.638,-0.059
6.64,-0.059
6.642,-0.068
6.644,-0.034
6.646,-0.029
6.648,-0.029
6.65,-0.068
6.652,-0.102
6.654,-0.112
6.656,-0.127
6.658,-0.137
6.66,-0.127
6.662,-0.146
6.664,-0.127
6.666,-0.049
6.668,-0.024
6.67,-0.01
6.672,-0.039
6.674,-0.122
6.676,-0.146
6.678,-0.146
6.68,-0.137
6.682,-0.102
6.684,-0.102
6.686,-0.088
6.688,-0.098
6.69,-0.098
6.692,-0.083
6.694,-0.117
6.696,-0.088
6.698,-0.088
6.7,-0.102
6.702,-0.112
6.704,-0.093
6.706,-0.068
6.708,-0.078
6.71,-0.117
6.712,-0.137
6.714,-0.142
6.716,-0.142
6.718,-0.122
6.72,-0.112
6.722,-0.117
6.724,-0.088
6.726,-0.024
6.728,0.0
6.73,-0.068
6.732,-0.146
6.734,-0.137
6.736,-0.107
6.738,-0.088
6.74,-0.073
6.742,-0.073
6.744,-0.029
6.746,-0.039
6.748,-0.068
6.75,-0.068
6.752,-0.078
6.754,-0.083
6.756,-0.078
6.758,-0.063
6.76,-0.044
6.762,-0.005
6.764,-0.005
6.766,-0.005
6.768,-0.02
6.77,-0.044
6.772,-0.034
6.774,-0.049
6.776,-0.029
6.778,-0.024
6.78,-0.034
6.782,-0.01
6.784,0.02
6.786,0.015
6.788,-0.034
6.79,-0.078
6.792,-0.039
6.794,0.0
6.796,-0.029
6.798,-0.044
6.8,-0.024
6.802,0.024
6.804,0.059
6.806,0.029
6.808,0.0
6.81,0.0
6.812,-0.02
6.814,-0.044
6.816,-0.054
6.818,-0.068
6.82,-0.063
6.822,-0.029
6.824,-0.029
6.826,-0.044
6.828,-0.01
6.83,-0.005
6.832,-0.063
6.834,-0.098
6.836,-0.112
6.838,-0.132
6.84,-0.137
6.842,-0.102
6.844,-0.005
6.846,0.039
6.848,0.068
6.85,0.063
6.852,-0.015
6.854,-0.083
6.856,-0.044
6.858,-0.01
6.86,-0.015
6.862,0.01
6.864,0.01
6.866,0.01
6.868,0.02
6.87,0.005
6.872,-0.024
6.874,-0.005
6.876,0.029
6.878,0.029
6.88,0.005
6.882,0.02
6.884,0.044
6.886,0.0
6.888,-0.02
6.89,-0.01
6.892,0.01
6.894,0.01
6.896,-0.015
6.898,0.0
6.9,0.024
6.902,0.049
6.904,0.049
6.906,0.029
6.908,0.01
6.91,0.0
6.912,-0.034
6.914,-0.034
6.916,-0.02
6.918,-0.01
6.92,0.01
6.922,0.034
6.924,0.044
6.926,0.044
6.928,-0.034
6.93,-0.044
6.932,-0.029
6.934,-0.063
6.936,-0.059
6.938,-0.059
6.94,-0.039
6.942,-0.01
6.944,-0.005
6.946,-0.005
6.948,-0.005
6.95,0.0
6.952,-0.029
6.954,-0.083
6.956,-0.107
6.958,-0.117
6.96,-0.068
6.962,-0.024
6.964,-0.015
6.966,-0.005
6.968,0.015
6.97,-0.015
6.972,-0.024
6.974,-0.039
6.976,-0.044
6.978,-0.024
6.98,0.005
6.982,0.0
6.984,0.015
6.986,-0.024
6.988,0.01
6.99,0.029
6.992,0.034
6.994,0.044
6.996,0.034
6.998,0.02
7.0,0.024
7.002,0.054
7.004,0.063
7.006,0.078
7.008,0.054
7.01,0.024
7.012,0.029
7.014,0.015
7.016,0.005
7.018,-0.02
7.02,0.01
7.022,0.059
7.024,0.059
7.026,0.01
7.028,-0.015
7.03,-0.029
7.032,-0.02
7.034,-0.049
7.036,-0.024
7.038,0.0
7.04,-0.01
7.042,0.0
7.044,-0.01
7.046,0.02
7.048,0.02
7.05,0.015
7.052,0.015
7.054,-0.039
7.056,-0.024
7.058,0.005
7.06,0.015
7.062,0.02
7.064,0.029
7.066,-0.024
7.068,-0.034
7.07,-0.059
7.072,-0.088
7.074,-0.034
7.076,-0.005
7.078,-0.029
7.08,0.02
7.082,0.029
7.084,0.02
7.086,0.01
7.088,0.01
7.09,0.005
7.092,0.01
7.094,-0.005
7.096,-0.005
7.098,0.015
7.1,0.015
7.102,-0.029
7.104,0.005
7.106,0.044
7.108,0.02
7.11,0.015
7.112,0.044
7.114,0.0
7.116,-0.054
7.118,-0.049
7.12,-0.024
7.122,0.015
7.124,0.034
7.126,0.024
7.128,0.049
7.13,0.039
7.132,0.034
7.134,0.015
7.136,0.0
7.138,0.015
7.14,0.039
7.142,0.068
7.144,0.088
7.146,0.093
7.148,0.068
7.15,0.063
7.152,0.039
7.154,-0.015
7.156,-0.01
7.158,0.039
7.16,0.029
7.162,-0.01
7.164,-0.024
7.166,0.005
7.168,0.029
7.17,0.0
7.172,-0.054
7.174,-0.054
7.176,-0.015
7.178,-0.01
7.18,-0.01
7.182,0.015
7.184,0.029
7.186,0.029
7.188,0.0
7.19,-0.01
7.192,-0.02
7.194,-0.01
7.196,0.015
7.198,0.034
7.2,0.078
7.202,0.078
7.204,0.059
7.206,0.063
7.208,0.049
7.21,0.02
7.212,0.02
7.214,0.073
7.216,0.093
7.218,0.102
7.22,0.059
7.222,0.083
7.224,0.112
7.226,0.088
7.228,0.044
7.23,0.02
7.232,0.005
7.234,-0.005
7.236,-0.005
7.238,0.029
7.24,0.034
7.242,0.049
7.244,0.068
7.246,0.088
7.248,0.093
7.25,0.112
7.252,0.088
7.254,0.049
7.256,0.024
7.258,0.024
7.26,0.034
7.262,0.024
7.264,0.044
7.266,0.078
7.268,0.098
7.27,0.083
7.272,0.049
7.274,0.059
7.276,0.078
7.278,0.088
7.28,0.088
7.282,0.112
7.284,0.102
7.286,0.107
7.288,0.059
7.29,0.02
7.292,0.034
7.294,-0.005
7.296,-0.01
7.298,0.063
7.3,0.083
7.302,0.088
7.304,0.093
7.306,0.093
7.308,0.068
7.31,0.034
7.312,0.015
7.314,0.024
7.316,0.034
7.318,0.059
7.32,0.059
7.322,0.054
7.324,0.044
7.326,0.029
7.328,0.039
7.33,0.039
7.332,0.029
7.334,0.01
7.336,0.01
7.338,0.068
7.34,0.078
7.342,0.063
7.344,0.063
7.346,0.078
7.348,0.044
7.35,0.034
7.352,0.063
7.354,0.059
7.356,0.098
7.358,0.146
7.36,0.171
7.362,0.146
7.364,0.122
7.366,0.093
7.368,0.063
7.37,0.083
7.372,0.088
7.374,0.068
7.376,0.029
7.378,0.005
7.38,0.039
7.382,0.088
7.384,0.068
7.386,0.073
7.388,0.098
7.39,0.102
7.392,0.112
7.394,0.078
7.396,0.054
7.398,0.039
7.4,0.059
7.402,0.063
7.404,0.093
7.406,0.107
7.408,0.088
7.41,0.088
7.412,0.059
7.414,0.024
7.416,0.015
7.418,0.015
7.42,-0.005
7.422,-0.02
7.424,0.024
7.426,0.054
7.428,0.059
7.43,0.034
7.432,-0.015
7.434,-0.044
7.436,-0.049
7.438,-0.02
7.44,0.034
7.442,0.039
7.444,0.059
7.446,0.088
7.448,0.171
7.45,0.268
7.452,0.337
7.454,0.459
7.456,0.576
7.458,0.615
7.46,0.625
7.462,0.673
7.464,0.639
7.466,0.561
7.468,0.517
7.47,0.473
7.472,0.371
7.474,0.234
7.476,0.151
7.478,0.239
7.48,0.356
7.482,0.386
7.484,0.356
7.486,0.303
7.488,0.22
7.49,0.156
7.492,0.151
7.494,0.142
7.496,0.146
7.498,0.185
7.5,0.166
7.502,0.088
7.504,0.039
7.506,0.029
7.508,0.015
7.51,-0.01
7.512,0.0
7.514,0.083
7.516,0.093
7.518,0.059
7.52,0.039
7.522,0.049
7.524,0.039
7.526,0.073
7.528,0.049
7.53,0.039
7.532,0.044
7.534,0.005
7.536,0.0
7.538,0.02
7.54,0.054
7.542,0.073
7.544,0.059
7.546,0.078
7.548,0.034
7.55,0.01
7.552,-0.034
7.554,-0.029
7.556,-0.015
7.558,0.0
7.56,-0.01
7.562,-0.005
7.564,-0.015
7.566,0.01
7.568,0.015
7.57,0.01
7.572,-0.005
7.574,-0.024
7.576,-0.049
7.578,-0.034
7.58,-0.039
7.582,-0.015
7.584,0.02
7.586,0.034
7.588,0.039
7.59,-0.005
7.592,-0.039
7.594,-0.059
7.596,-0.088
7.598,-0.039
7.6,0.005
7.602,-0.01
7.604,0.0
7.606,-0.01
7.608,0.024
7.61,0.054
7.612,0.034
7.614,-0.02
7.616,-0.039
7.618,0.015
7.62,0.015
7.622,0.01
7.624,0.01
7.626,0.029
7.628,0.024
7.63,0.01
7.632,-0.044
7.634,-0.102
7.636,-0.107
7.638,-0.093
7.64,-0.088
7.642,-0.059
7.644,-0.005
7.646,0.005
7.648,0.005
7.65,0.015
7.652,0.024
7.654,-0.024
7.656,-0.054
7.658,-0.054
7.66,-0.034
7.662,0.01
7.664,-0.015
7.666,-0.039
7.668,-0.029
7.67,-0.024
7.672,-0.034
7.674,-0.054
7.676,-0.063
7.678,-0.054
7.68,-0.039
7.682,-0.024
7.684,-0.02
7.686,-0.02
7.688,-0.059
7.69,-0.044
7.692,-0.044
7.694,-0.054
7.696,-0.054
7.698,-0.02
7.7,0.024
7.702,-0.02
7.704,-0.059
7.706,-0.054
7.708,-0.059
7.71,-0.054
7.712,-0.112
7.714,-0.161
7.716,-0.117
7.718,-0.068
7.72,-0.049
7.722,0.005
7.724,0.01
7.726,0.005
7.728,0.005
7.73,-0.01
7.732,0.0
7.734,-0.039
7.736,-0.083
7.738,-0.063
7.74,-0.029
7.742,0.01
7.744,0.015
7.746,0.015
7.748,0.015
7.75,0.02
7.752,0.01
7.754,0.005
7.756,0.034
7.758,0.063
7.76,0.029
7.762,0.024
7.764,0.039
7.766,0.073
7.768,0.034
7.77,-0.01
7.772,-0.01
7.774,0.005
7.776,0.039
7.778,0.068
7.78,0.088
7.782,0.088
7.784,0.088
7.786,0.112
7.788,0.078
7.79,0.078
7.792,0.078
7.794,0.054
7.796,0.029
7.798,0.01
7.8,0.01
7.802,0.059
7.804,0.112
7.806,0.093
7.808,0.059
7.81,0.078
7.812,0.083
7.814,0.059
7.816,0.034
7.818,0.054
7.82,0.078
7.822,0.088
7.824,0.107
7.826,0.137
7.828,0.098
7.83,0.073
7.832,0.034
7.834,0.02
7.836,0.034
7.838,0.059
7.84,0.098
7.842,0.127
7.844,0.161
7.846,0.142
7.848,0.132
7.85,0.146
7.852,0.127
7.854,0.117
7.856,0.073
7.858,0.049
7.86,0.078
7.862,0.098
7.864,0.122
7.866,0.102
7.868,0.088
7.87,0.093
7.872,0.063
7.874,0.034
7.876,0.034
7.878,0.068
7.88,0.132
7.882,0.156
7.884,0.156
7.886,0.176
7.888,0.142
7.89,0.098
7.892,0.054
7.894,0.029
7.896,0.049
7.898,0.078
7.9,0.098
7.902,0.146
7.904,0.146
7.906,0.156
7.908,0.176
7.91,0.151
7.912,0.142
7.914,0.122
7.916,0.102
7.918,0.117
7.92,0.073
7.922,0.068
7.924,0.093
7.926,0.073
7.928,-0.015
7.93,-0.063
7.932,-0.107
7.934,-0.088
7.936,-0.049
7.938,-0.049
7.94,-0.083
7.942,-0.112
7.944,-0.034
7.946,0.039
7.948,0.142
7.95,0.312
7.952,0.444
7.954,0.459
7.956,0.42
7.958,0.42
7.96,0.395
7.962,0.346
7.964,0.342
7.966,0.361
7.968,0.371
7.97,0.327
7.972,0.229
7.974,0.166
7.976,0.205
7.978,0.288
7.98,0.351
7.982,0.342
7.984,0.254
7.986,0.21
7.988,0.2
7.99,0.234
7.992,0.205
7.994,0.146
7.996,0.107
7.998,0.078
8.0,0.049
8.002,0.039
8.004,0.059
8.006,0.088
8.008,0.098
8.01,0.102
8.012,0.054
8.014,0.01
8.016,0.029
8.018,0.068
8.02,0.068
8.022,0.088
8.024,0.117
8.026,0.132
8.028,0.122
8.03,0.122
8.032,0.122
8.034,0.088
8.036,0.063
8.038,0.083
8.04,0.102
8.042,0.117
8.044,0.112
8.046,0.102
8.048,0.093
8.05,0.142
8.052,0.127
8.054,0.083
8.056,0.059
8.058,0.029
8.06,0.034
8.062,0.054
8.064,0.059
8.066,0.068
8.068,0.063
8.07,0.049
8.072,0.054
8.074,0.054
8.076,0.054
8.078,0.054
8.08,0.049
8.082,0.083
8.084,0.098
8.086,0.073
8.088,0.068
8.09,0.098
8.092,0.088
8.094,0.054
8.096,0.034
8.098,0.039
8.1,0.01
8.102,0.02
8.104,0.073
8.106,0.112
8.108,0.122
8.11,0.068
8.112,0.059
8.114,0.063
8.116,0.054
8.118,0.044
8.12,0.044
8.122,0.078
8.124,0.122
8.126,0.098
8.128,0.054
8.13,0.044
8.132,0.044
8.134,0.029
8.136,0.049
8.138,0.059
8.14,0.063
8.142,0.088
8.144,0.102
8.146,0.088
8.148,0.078
8.15,0.073
8.152,0.083
8.154,0.054
8.156,0.059
8.158,0.078
8.16,0.049
8.162,0.049
8.164,0.059
8.166,0.063
8.168,0.068
8.17,0.073
8.172,0.063
8.174,0.054
8.176,0.02
8.178,0.02
8.18,0.093
8.182,0.137
8.184,0.127
8.186,0.102
8.188,0.093
8.19,0.093
8.192,0.078
8.194,0.039
8.196,0.054
8.198,0.083
8.2,0.088
8.202,0.078
8.204,0.078
8.206,0.063
8.208,0.083
8.21,0.132
8.212,0.127
8.214,0.088
8.216,0.078
8.218,0.059
8.22,0.054
8.222,0.02
8.224,0.02
8.226,0.054
8.228,0.083
8.23,0.063
8.232,0.034
8.234,0.02
8.236,0.039
8.238,0.059
8.24,0.068
8.242,0.088
8.244,0.088
8.246,0.068
8.248,0.029
8.25,0.034
8.252,0.063
8.254,0.049
8.256,0.049
8.258,0.039
8.26,0.024
8.262,0.024
8.264,0.068
8.266,0.107
8.268,0.102
8.27,0.073
8.272,0.063
8.274,0.059
8.276,0.024
8.278,0.02
8.28,0.054
8.282,0.078
8.284,0.122
8.286,0.102
8.288,0.093
8.29,0.088
8.292,0.049
8.294,0.044
8.296,0.049
8.298,0.073
8.3,0.088
8.302,0.073
8.304,0.063
8.306,0.088
8.308,0.073
8.31,0.063
8.312,0.063
8.314,0.059
8.316,0.054
8.318,0.034
8.32,0.039
8.322,0.088
8.324,0.054
8.326,0.044
8.328,0.059
8.33,0.073
8.332,0.083
8.334,0.024
8.336,-0.005
8.338,0.054
8.34,0.117
8.342,0.137
8.344,0.112
8.346,0.102
8.348,0.093
8.35,0.063
8.352,0.049
8.354,0.054
8.356,0.029
8.358,0.029
8.36,0.034
8.362,0.049
8.364,0.102
8.366,0.156
8.368,0.117
8.37,0.073
8.372,0.044
8.374,0.02
8.376,0.005
8.378,0.02
8.38,0.015
8.382,0.01
8.384,0.039
8.386,0.073
8.388,0.024
8.39,0.015
8.392,0.0
8.394,-0.005
8.396,0.005
8.398,-0.015
8.4,-0.015
8.402,-0.005
8.404,0.024
8.406,0.044
8.408,0.039
8.41,0.039
8.412,0.039
8.414,0.02
8.416,0.0
8.418,0.01
8.42,0.034
8.422,0.044
8.424,0.034
8.426,0.01
8.428,0.0
8.43,0.015
8.432,0.034
8.434,0.039
8.436,0.059
8.438,0.068
8.44,0.073
8.442,0.098
8.444,0.122
8.446,0.102
8.448,0.098
8.45,0.088
8.452,0.088
8.454,0.044
8.456,0.02
8.458,0.044
8.46,0.073
8.462,0.054
8.464,0.049
8.466,0.098
8.468,0.107
8.47,0.088
8.472,0.034
8.474,0.024
8.476,0.029
8.478,0.039
8.48,0.068
8.482,0.068
8.484,0.063
8.486,0.078
8.488,0.068
8.49,0.049
8.492,0.01
8.494,-0.015
8.496,-0.029
8.498,0.0
8.5,0.02
8.502,0.049
8.504,0.054
8.506,0.083
8.508,0.098
8.51,0.098
8.512,0.068
8.514,0.029
8.516,0.02
8.518,0.034
8.52,0.049
8.522,0.049
8.524,0.039
8.526,0.029
8.528,0.034
8.53,0.044
8.532,0.029
8.534,0.044
8.536,0.039
8.538,0.029
8.54,0.015
8.542,0.01
8.544,0.01
8.546,0.034
8.548,0.049
8.55,0.02
8.552,0.01
8.554,0.049
8.556,0.073
8.558,0.078
8.56,0.083
8.562,0.083
8.564,0.078
8.566,0.102
8.568,0.098
8.57,0.107
8.572,0.132
8.574,0.068
8.576,0.024
8.578,0.02
8.58,0.024
8.582,0.034
8.584,0.039
8.586,0.059
8.588,0.068
8.59,0.054
8.592,0.034
8.594,0.024
8.596,0.005
8.598,0.0
8.6,0.02
8.602,0.063
8.604,0.073
8.606,0.102
8.608,0.063
8.61,0.034
8.612,0.054
8.614,0.073
8.616,0.073
8.618,0.059
8.62,0.044
8.622,0.034
8.624,0.044
8.626,0.044
8.628,0.039
8.63,0.068
8.632,0.068
8.634,0.015
8.636,-0.005
8.638,0.024
8.64,0.024
8.642,0.039
8.644,0.059
8.646,0.063
8.648,0.029
8.65,-0.01
8.652,-0.034
8.654,-0.02
8.656,0.01
8.658,0.044
8.66,0.039
8.662,0.015
8.664,0.005
8.666,0.0
8.668,-0.024
8.67,-0.039
8.672,-0.068
8.674,-0.132
8.676,-0.161
8.678,-0.156
8.68,-0.151
8.682,-0.102
8.684,-0.039
8.686,0.0
8.688,-0.015
8.69,-0.039
8.692,0.0
8.694,0.083
8.696,0.161
8.698,0.288
8.7,0.42
8.702,0.542
8.704,0.62
8.706,0.659
8.708,0.698
8.71,0.664
8.712,0.537
8.714,0.41
8.716,0.342
8.718,0.317
8.72,0.268
8.722,0.224
8.724,0.249
8.726,0.317
8.728,0.288
8.73,0.205
8.732,0.132
8.734,0.088
8.736,0.078
8.738,0.088
8.74,0.102
8.742,0.107
8.744,0.151
8.746,0.146
8.748,0.068
8.75,0.029
8.752,0.0
8.754,-0.054
8.756,-0.063
8.758,-0.049
8.76,-0.02
8.762,-0.01
8.764,-0.02
8.766,-0.039
8.768,-0.034
8.77,-0.034
8.772,-0.068
8.774,-0.083
8.776,-0.088
8.778,-0.054
8.78,0.005
8.782,-0.005
8.784,-0.02
8.786,-0.024
8.788,-0.024
8.79,-0.049
8.792,-0.063
8.794,-0.098
8.796,-0.151
8.798,-0.142
8.8,-0.063
8.802,0.0
8.804,-0.005
8.806,-0.034
8.808,-0.029
8.81,-0.068
8.812,-0.117
8.814,-0.122
8.816,-0.117
8.818,-0.117
8.82,-0.102
8.822,-0.088
8.824,-0.059
8.826,-0.063
8.828,-0.063
8.83,-0.054
8.832,-0.078
8.834,-0.088
8.836,-0.068
8.838,-0.059
8.84,-0.083
8.842,-0.073
8.844,-0.049
8.846,0.0
8.848,0.0
8.85,0.005
8.852,-0.034
8.854,-0.107
8.856,-0.093
8.858,-0.059
8.86,-0.044
8.862,-0.073
8.864,-0.102
8.866,-0.083
8.868,-0.073
8.87,-0.098
8.872,-0.093
8.874,-0.068
8.876,-0.073
8.878,-0.093
8.88,-0.102
8.882,-0.107
8.884,-0.078
8.886,-0.049
8.888,-0.054
8.89,-0.054
8.892,-0.054
8.894,-0.049
8.896,-0.039
8.898,-0.059
8.9,-0.093
8.902,-0.093
8.904,-0.068
8.906,-0.068
8.908,-0.078
8.91,-0.083
8.912,-0.073
8.914,-0.054
8.916,-0.054
8.918,-0.054
8.92,-0.059
8.922,-0.059
8.924,-0.039
8.926,-0.034
8.928,-0.034
8.93,-0.02
8.932,-0.039
8.934,-0.093
8.936,-0.122
8.938,-0.117
8.94,-0.137
8.942,-0.146
8.944,-0.127
8.946,-0.098
8.948,-0.088
8.95,-0.083
8.952,-0.088
8.954,-0.088
8.956,-0.122
8.958,-0.088
8.96,-0.078
8.962,-0.063
8.964,-0.049
8.966,-0.049
8.968,-0.054
8.97,-0.068
8.972,-0.068
8.974,-0.063
8.976,-0.078
8.978,-0.068
8.98,-0.044
8.982,-0.059
8.984,-0.059
8.986,-0.034
8.988,0.01
8.99,0.005
8.992,-0.029
8.994,-0.044
8.996,-0.039
8.998,-0.015
9.0,-0.015
9.002,-0.02
9.004,-0.015
9.006,0.0
9.008,-0.005
9.01,-0.034
9.012,-0.034
9.014,-0.024
9.016,-0.01
9.018,-0.029
9.02,-0.02
9.022,0.01
9.024,0.02
9.026,0.02
9.028,0.024
9.03,0.0
9.032,0.024
9.034,0.068
9.036,0.068
9.038,0.068
9.04,0.068
9.042,0.078
9.044,0.073
9.046,0.049
9.048,0.059
9.05,0.01
9.052,-0.049
9.054,-0.068
9.056,-0.02
9.058,0.0
9.06,0.024
9.062,0.044
9.064,0.088
9.066,0.112
9.068,0.093
9.07,0.049
9.072,0.015
9.074,0.039
9.076,0.044
9.078,0.029
9.08,0.059
9.082,0.049
9.084,0.063
9.086,0.093
9.088,0.049
9.09,0.034
9.092,0.044
9.094,0.039
9.096,0.039
9.098,0.049
9.1,0.039
9.102,-0.005
9.104,0.044
9.106,0.112
9.108,0.127
9.11,0.107
9.112,0.068
9.114,0.034
9.116,0.044
9.118,0.078
9.12,0.073
9.122,0.083
9.124,0.063
9.126,0.02
9.128,0.054
9.13,0.063
9.132,0.039
9.134,-0.005
9.136,-0.02
9.138,0.01
9.14,0.0
9.142,0.02
9.144,0.049
9.146,0.039
9.148,0.034
9.15,0.059
9.152,0.029
9.154,-0.015
9.156,-0.054
9.158,-0.044
9.16,-0.01
9.162,0.029
9.164,0.029
9.166,0.029
9.168,0.034
9.17,0.034
9.172,0.015
9.174,0.024
9.176,-0.01
9.178,-0.034
9.18,0.005
9.182,0.029
9.184,0.029
9.186,0.063
9.188,0.044
9.19,0.015
9.192,-0.015
9.194,-0.029
9.196,0.005
9.198,0.049
9.2,0.044
9.202,0.068
9.204,0.078
9.206,0.083
9.208,0.083
9.21,0.083
9.212,0.034
9.214,0.015
9.216,-0.024
9.218,-0.039
9.22,-0.029
9.222,0.01
9.224,0.059
9.226,0.078
9.228,0.054
9.23,0.034
9.232,0.029
9.234,0.02
9.236,-0.005
9.238,0.005
9.24,0.039
9.242,0.059
9.244,0.078
9.246,0.073
9.248,0.034
9.25,0.029
9.252,0.01
9.254,-0.034
9.256,-0.005
9.258,0.049
9.26,0.073
9.262,0.088
9.264,0.063
9.266,0.049
9.268,0.034
9.27,-0.029
9.272,-0.068
9.274,-0.083
9.276,-0.078
9.278,-0.049
9.28,-0.044
9.282,-0.029
9.284,-0.044
9.286,-0.049
9.288,-0.034
9.29,-0.01
9.292,0.0
9.294,0.059
9.296,0.21
9.298,0.425
9.3,0.493
9.302,0.503
9.304,0.532
9.306,0.537
9.308,0.468
9.31,0.41
9.312,0.371
9.314,0.351
9.316,0.293
9.318,0.215
9.32,0.166
9.322,0.259
9.324,0.366
9.326,0.332
9.328,0.273
9.33,0.229
9.332,0.181
9.334,0.161
9.336,0.142
9.338,0.132
9.34,0.137
9.342,0.107
9.344,0.054
9.346,0.01
9.348,-0.015
9.35,-0.029
9.352,-0.029
9.354,-0.059
9.356,-0.059
9.358,-0.024
9.36,0.024
9.362,0.054
9.364,0.039
9.366,0.029
9.368,0.015
9.37,0.034
9.372,0.049
9.374,0.01
9.376,-0.005
9.378,-0.02
9.38,-0.034
9.382,-0.039
9.384,0.005
9.386,0.044
9.388,-0.015
9.39,-0.024
9.392,0.024
9.394,0.02
9.396,0.0
9.398,0.024
9.4,0.034
9.402,0.029
9.404,0.034
9.406,0.044
9.408,0.034
9.41,0.015
9.412,-0.049
9.414,-0.068
9.416,-0.054
9.418,-0.02
9.42,0.044
9.422,0.054
9.424,0.029
9.426,0.049
9.428,0.054
9.43,0.073
9.432,0.068
9.434,0.024
9.436,-0.02
9.438,-0.01
9.44,-0.01
9.442,0.015
9.444,0.034
9.446,0.039
9.448,0.029
9.45,0.01
9.452,-0.01
9.454,-0.088
9.456,-0.098
9.458,-0.039
9.46,-0.049
9.462,-0.039
9.464,-0.029
9.466,-0.015
9.468,-0.034
9.47,-0.059
9.472,-0.059
9.474,-0.039
9.476,-0.015
9.478,0.034
9.48,0.015
9.482,-0.015
9.484,-0.029
9.486,-0.015
9.488,0.0
9.49,0.01
9.492,-0.024
9.494,-0.054
9.496,-0.059
9.498,-0.054
9.5,-0.054
9.502,-0.044
9.504,-0.024
9.506,0.024
9.508,0.029
9.51,0.034
9.512,0.015
9.514,0.0
9.516,-0.01
9.518,0.0
9.52,0.005
9.522,0.029
9.524,0.049
9.526,0.054
9.528,0.054
9.53,0.059
9.532,0.054
9.534,0.01
9.536,-0.015
9.538,0.0
9.54,0.01
9.542,0.024
9.544,0.01
9.546,0.01
9.548,0.029
9.55,0.005
9.552,0.02
9.554,0.02
9.556,0.005
9.558,0.029
9.56,0.049
9.562,0.088
9.564,0.093
9.566,0.063
9.568,0.054
9.57,0.02
9.572,0.044
9.574,0.112
9.576,0.083
9.578,0.029
9.58,0.049
9.582,0.073
9.584,0.088
9.586,0.083
9.588,0.093
9.59,0.102
9.592,0.073
9.594,0.054
9.596,0.034
9.598,0.049
9.6,0.068
9.602,0.054
9.604,0.088
9.606,0.132
9.608,0.117
9.61,0.102
9.612,0.083
9.614,0.083
9.616,0.088
9.618,0.083
9.62,0.068
9.622,0.073
9.624,0.059
9.626,0.054
9.628,0.083
9.63,0.107
9.632,0.078
9.634,0.049
9.636,0.02
9.638,0.073
9.64,0.073
9.642,0.068
9.644,0.107
9.646,0.142
9.648,0.137
9.65,0.137
9.652,0.102
9.654,0.093
9.656,0.054
9.658,0.049
9.66,0.098
9.662,0.132
9.664,0.112
9.666,0.137
9.668,0.137
9.67,0.122
9.672,0.093
9.674,0.102
9.676,0.112
9.678,0.102
9.68,0.088
9.682,0.107
9.684,0.142
9.686,0.112
9.688,0.102
9.69,0.132
9.692,0.156
9.694,0.146
9.696,0.098
9.698,0.078
9.7,0.102
9.702,0.151
9.704,0.151
9.706,0.161
9.708,0.176
9.71,0.156
9.712,0.127
9.714,0.107
9.716,0.088
9.718,0.093
9.72,0.098
9.722,0.142
9.724,0.161
9.726,0.161
9.728,0.127
9.73,0.127
9.732,0.127
9.734,0.088
9.736,0.054
9.738,0.059
9.74,0.122
9.742,0.176
9.744,0.171
9.746,0.127
9.748,0.112
9.75,0.122
9.752,0.088
9.754,0.083
9.756,0.039
9.758,0.039
9.76,0.083
9.762,0.102
9.764,0.112
9.766,0.151
9.768,0.137
9.77,0.142
9.772,0.142
9.774,0.117
9.776,0.107
9.778,0.107
9.78,0.122
9.782,0.156
9.784,0.146
9.786,0.142
9.788,0.166
9.79,0.151
9.792,0.117
9.794,0.107
9.796,0.142
9.798,0.122
9.8,0.098
9.802,0.112
9.804,0.112
9.806,0.122
9.808,0.107
9.81,0.107
9.812,0.107
9.814,0.112
9.816,0.083
9.818,0.107
9.82,0.142
9.822,0.151
9.824,0.151
9.826,0.161
9.828,0.142
9.83,0.122
9.832,0.107
9.834,0.078
9.836,0.073
9.838,0.098
9.84,0.107
9.842,0.161
9.844,0.205
9.846,0.19
9.848,0.2
9.85,0.176
9.852,0.102
9.854,0.098
9.856,0.093
9.858,0.078
9.86,0.063
9.862,0.078
9.864,0.098
9.866,0.122
9.868,0.102
9.87,0.093
9.872,0.142
9.874,0.117
9.876,0.068
9.878,0.093
9.88,0.132
9.882,0.142
9.884,0.132
9.886,0.112
9.888,0.098
9.89,0.098
9.892,0.083
9.894,0.049
9.896,0.034
9.898,0.049
9.9,0.029
9.902,0.02
9.904,0.049
9.906,0.102
9.908,0.107
9.91,0.102
9.912,0.122
9.914,0.098
9.916,0.088
9.918,0.098
9.92,0.078
9.922,0.054
9.924,0.073
9.926,0.098
9.928,0.102
9.93,0.122
9.932,0.117
9.934,0.112
9.936,0.102
9.938,0.117
9.94,0.117
9.942,0.117
9.944,0.117
9.946,0.107
9.948,0.122
9.95,0.132
9.952,0.132
9.954,0.117
9.956,0.132
9.958,0.127
9.96,0.137
9.962,0.142
9.964,0.127
9.966,0.107
9.968,0.059
9.97,0.083
9.972,0.146
9.974,0.185
9.976,0.176
9.978,0.161
9.98,0.176
9.982,0.176
9.984,0.171
9.986,0.151
9.988,0.098
9.99,0.107
9.992,0.093
9.994,0.088
9.996,0.093
9.998,0.102
