time,ecg_signal
0.0,-0.176
0.002,-0.166
0.004,-0.156
0.006,-0.156
0.008,-0.146
0.01,-0.142
0.012,-0.142
0.014,-0.137
0.016,-0.137
0.018,-0.151
0.02,-0.161
0.022,-0.117
0.024,-0.088
0.026,-0.093
0.028,-0.083
0.03,-0.039
0.032,-0.024
0.034,0.0
0.036,0.083
0.038,0.19
0.04,0.293
0.042,0.386
0.044,0.449
0.046,0.498
0.048,0.571
0.05,0.62
0.052,0.576
0.054,0.459
0.056,0.346
0.058,0.215
0.06,0.083
0.062,-0.024
0.064,-0.137
0.066,-0.244
0.068,-0.317
0.07,-0.366
0.072,-0.395
0.074,-0.376
0.076,-0.327
0.078,-0.249
0.08,-0.195
0.082,-0.166
0.084,-0.156
0.086,-0.146
0.088,-0.132
0.09,-0.093
0.092,-0.073
0.094,-0.088
0.096,-0.078
0.098,-0.068
0.1,-0.068
0.102,-0.078
0.104,-0.093
0.106,-0.117
0.108,-0.122
0.11,-0.127
0.112,-0.112
0.114,-0.088
0.116,-0.088
0.118,-0.093
0.12,-0.093
0.122,-0.078
0.124,-0.083
0.126,-0.078
0.128,-0.073
0.13,-0.073
0.132,-0.073
0.134,-0.073
0.136,-0.073
0.138,-0.063
0.14,-0.073
0.142,-0.073
0.144,-0.073
0.146,-0.098
0.148,-0.098
0.15,-0.068
0.152,-0.068
0.154,-0.073
0.156,-0.078
0.158,-0.088
0.16,-0.093
0.162,-0.102
0.164,-0.102
0.166,-0.102
0.168,-0.093
0.17,-0.078
0.172,-0.078
0.174,-0.078
0.176,-0.078
0.178,-0.063
0.18,-0.063
0.182,-0.059
0.184,-0.044
0.186,-0.068
0.188,-0.059
0.19,-0.059
0.192,-0.059
0.194,-0.059
0.196,-0.059
0.198,-0.049
0.2,-0.049
0.202,-0.039
0.204,-0.049
0.206,-0.049
0.208,-0.029
0.21,-0.039
0.212,-0.044
0.214,-0.054
0.216,-0.059
0.218,-0.059
0.22,-0.049
0.222,-0.044
0.224,-0.044
0.226,-0.015
0.228,-0.015
0.23,-0.01
0.232,-0.01
0.234,-0.005
0.236,0.01
0.238,0.01
0.24,0.01
0.242,0.005
0.244,-0.015
0.246,-0.02
0.248,-0.02
0.25,-0.005
0.252,-0.005
0.254,0.0
0.256,0.0
0.258,-0.01
0.26,-0.01
0.262,0.0
0.264,0.0
0.266,0.015
0.268,0.034
0.27,0.059
0.272,0.073
0.274,0.078
0.276,0.102
0.278,0.107
0.28,0.107
0.282,0.093
0.284,0.112
0.286,0.122
0.288,0.117
0.29,0.127
0.292,0.127
0.294,0.127
0.296,0.146
0.298,0.166
0.3,0.156
0.302,0.151
0.304,0.151
0.306,0.151
0.308,0.151
0.31,0.151
0.312,0.161
0.314,0.151
0.316,0.161
0.318,0.161
0.32,0.176
0.322,0.185
0.324,0.171
0.326,0.171
0.328,0.171
0.33,0.181
0.332,0.195
0.334,0.195
0.336,0.205
0.338,0.215
0.34,0.205
0.342,0.195
0.344,0.19
0.346,0.185
0.348,0.19
0.35,0.171
0.352,0.156
0.354,0.151
0.356,0.146
0.358,0.142
0.36,0.112
0.362,0.117
0.364,0.093
0.366,0.073
0.368,0.063
0.37,0.049
0.372,0.034
0.374,0.024
0.376,-0.005
0.378,0.01
0.38,0.02
0.382,0.015
0.384,0.02
0.386,0.01
0.388,0.015
0.39,0.015
0.392,0.024
0.394,0.034
0.396,0.029
0.398,0.015
0.4,0.015
0.402,0.02
0.404,0.005
0.406,-0.005
0.408,-0.01
0.41,-0.01
0.412,-0.01
0.414,-0.024
0.416,-0.034
0.418,-0.044
0.42,-0.044
0.422,-0.049
0.424,-0.059
0.426,-0.049
0.428,-0.049
0.43,-0.049
0.432,-0.049
0.434,-0.044
0.436,-0.039
0.438,-0.034
0.44,-0.024
0.442,-0.029
0.444,-0.044
0.446,-0.049
0.448,-0.044
0.45,-0.029
0.452,-0.039
0.454,-0.044
0.456,-0.044
0.458,-0.044
0.46,-0.044
0.462,-0.044
0.464,-0.044
0.466,-0.054
0.468,-0.044
0.47,-0.044
0.472,-0.044
0.474,-0.059
0.476,-0.059
0.478,-0.059
0.48,-0.059
0.482,-0.068
0.484,-0.068
0.486,-0.068
0.488,-0.068
0.49,-0.068
0.492,-0.063
0.494,-0.054
0.496,-0.054
0.498,-0.039
0.5,-0.044
0.502,-0.044
0.504,-0.039
0.506,-0.024
0.508,-0.024
0.51,-0.029
0.512,-0.029
0.514,-0.039
0.516,-0.034
0.518,-0.034
0.52,-0.034
0.522,-0.024
0.524,-0.024
0.526,-0.029
0.528,-0.029
0.53,-0.034
0.532,-0.044
0.534,-0.059
0.536,-0.068
0.538,-0.059
0.54,-0.059
0.542,-0.063
0.544,-0.063
0.546,-0.049
0.548,-0.039
0.55,-0.029
0.552,-0.02
0.554,-0.01
0.556,0.0
0.558,0.0
0.56,-0.005
0.562,0.0
0.564,0.005
0.566,0.0
0.568,0.005
0.57,0.0
0.572,0.005
0.574,-0.005
0.576,-0.02
0.578,-0.02
0.58,-0.02
0.582,-0.02
0.584,-0.02
0.586,-0.029
0.588,-0.029
0.59,-0.044
0.592,-0.029
0.594,-0.039
0.596,-0.039
0.598,-0.039
0.6,-0.039
0.602,-0.044
0.604,-0.044
0.606,-0.044
0.608,-0.044
0.61,-0.024
0.612,-0.024
0.614,0.01
0.616,0.015
0.618,-0.01
0.62,0.0
0.622,0.015
0.624,0.015
0.626,-0.01
0.628,-0.02
0.63,-0.029
0.632,-0.044
0.634,-0.034
0.636,-0.034
0.638,-0.024
0.64,-0.015
0.642,-0.015
0.644,-0.02
0.646,-0.029
0.648,-0.029
0.65,-0.029
0.652,-0.034
0.654,-0.039
0.656,-0.044
0.658,-0.034
0.66,-0.049
0.662,-0.049
0.664,-0.049
0.666,-0.044
0.668,-0.034
0.67,-0.024
0.672,-0.034
0.674,-0.034
0.676,-0.039
0.678,-0.029
0.68,-0.005
0.682,0.005
0.684,-0.01
0.686,0.0
0.688,0.01
0.69,0.01
0.692,-0.01
0.694,-0.024
0.696,-0.034
0.698,-0.02
0.7,-0.02
0.702,-0.024
0.704,-0.024
0.706,-0.015
0.708,-0.015
0.71,-0.01
0.712,-0.01
0.714,-0.015
0.716,-0.015
0.718,-0.015
0.72,-0.015
0.722,-0.024
0.724,-0.034
0.726,-0.039
0.728,-0.039
0.73,-0.029
0.732,-0.024
0.734,-0.02
0.736,-0.015
0.738,0.005
0.74,0.005
0.742,0.005
0.744,0.0
0.746,-0.005
0.748,-0.015
0.75,-0.02
0.752,-0.024
0.754,-0.024
0.756,-0.024
0.758,-0.029
0.76,-0.034
0.762,-0.029
0.764,-0.024
0.766,-0.024
0.768,-0.024
0.77,-0.02
0.772,-0.015
0.774,-0.01
0.776,-0.005
0.778,-0.01
0.78,-0.01
0.782,-0.005
0.784,-0.005
0.786,-0.02
0.788,-0.015
0.79,0.0
0.792,-0.02
0.794,-0.01
0.796,-0.01
0.798,-0.01
0.8,-0.01
0.802,-0.029
0.804,-0.039
0.806,-0.049
0.808,-0.059
0.81,-0.039
0.812,-0.029
0.814,-0.02
0.816,-0.01
0.818,0.005
0.82,0.01
0.822,0.015
0.824,0.02
0.826,0.01
0.828,0.01
0.83,0.01
0.832,0.01
0.834,0.0
0.836,0.0
0.838,0.0
0.84,0.0
0.842,0.01
0.844,0.01
0.846,0.01
0.848,0.01
0.85,-0.005
0.852,-0.01
0.854,-0.015
0.856,-0.02
0.858,-0.039
0.86,-0.049
0.862,-0.059
0.864,-0.068
0.866,-0.049
0.868,-0.029
0.87,-0.01
0.872,0.01
0.874,0.01
0.876,0.01
0.878,0.01
0.88,0.01
0.882,0.02
0.884,0.02
0.886,0.02
0.888,0.02
0.89,0.01
0.892,0.01
0.894,0.01
0.896,0.01
0.898,0.015
0.9,0.02
0.902,0.034
0.904,0.049
0.906,0.044
0.908,0.049
0.91,0.039
0.912,0.034
0.914,0.029
0.916,0.039
0.918,0.039
0.92,0.029
0.922,0.039
0.924,0.059
0.926,0.073
0.928,0.093
0.93,0.093
0.932,0.083
0.934,0.083
0.936,0.088
0.938,0.098
0.94,0.098
0.942,0.117
0.944,0.122
0.946,0.127
0.948,0.127
0.95,0.127
0.952,0.132
0.954,0.132
0.956,0.132
0.958,0.127
0.96,0.122
0.962,0.093
0.964,0.068
0.966,0.044
0.968,0.015
0.97,0.02
0.972,0.029
0.974,0.049
0.976,0.059
0.978,0.054
0.98,0.049
0.982,0.054
0.984,0.049
0.986,0.044
0.988,0.029
0.99,0.044
0.992,0.044
0.994,0.005
0.996,-0.01
0.998,-0.015
1.0,-0.01
1.002,-0.005
1.004,-0.015
1.006,-0.01
1.008,-0.005
1.01,-0.005
1.012,-0.005
1.014,-0.005
1.016,-0.005
1.018,-0.01
1.02,-0.005
1.022,-0.005
1.024,-0.01
1.026,-0.029
1.028,-0.029
1.03,-0.029
1.032,-0.049
1.034,-0.054
1.036,-0.049
1.038,-0.054
1.04,-0.063
1.042,-0.044
1.044,0.01
1.046,0.029
1.048,0.01
1.05,0.005
1.052,0.005
1.054,-0.02
1.056,-0.01
1.058,0.024
1.06,0.054
1.062,0.088
1.064,0.122
1.066,0.166
1.068,0.268
1.07,0.395
1.072,0.488
1.074,0.571
1.076,0.644
1.078,0.693
1.08,0.727
1.082,0.688
1.084,0.576
1.086,0.468
1.088,0.356
1.09,0.224
1.092,0.122
1.094,0.054
1.096,-0.039
1.098,-0.156
1.1,-0.229
1.102,-0.239
1.104,-0.22
1.106,-0.2
1.108,-0.181
1.11,-0.122
1.112,-0.029
1.114,-0.01
1.116,-0.049
1.118,-0.02
1.12,0.063
1.122,0.054
1.124,0.015
1.126,0.039
1.128,0.068
1.13,0.063
1.132,0.059
1.134,0.044
1.136,0.024
1.138,0.015
1.14,0.015
1.142,0.015
1.144,0.034
1.146,0.039
1.148,0.029
1.15,0.015
1.152,0.005
1.154,0.015
1.156,0.005
1.158,0.005
1.16,0.005
1.162,0.02
1.164,0.024
1.166,0.029
1.168,0.034
1.17,0.054
1.172,0.054
1.174,0.063
1.176,0.073
1.178,0.059
1.18,0.059
1.182,0.088
1.184,0.088
1.186,0.088
1.188,0.078
1.19,0.063
1.192,0.054
1.194,0.054
1.196,0.054
1.198,0.054
1.2,0.063
1.202,0.054
1.204,0.049
1.206,0.044
1.208,0.039
1.21,0.029
1.212,0.024
1.214,0.024
1.216,0.034
1.218,0.034
1.22,0.059
1.222,0.073
1.224,0.088
1.226,0.098
1.228,0.107
1.23,0.127
1.232,0.137
1.234,0.132
1.236,0.107
1.238,0.093
1.24,0.098
1.242,0.112
1.244,0.112
1.246,0.107
1.248,0.107
1.25,0.098
1.252,0.107
1.254,0.112
1.256,0.112
1.258,0.122
1.26,0.112
1.262,0.107
1.264,0.098
1.266,0.098
1.268,0.098
1.27,0.083
1.272,0.068
1.274,0.093
1.276,0.093
1.278,0.107
1.28,0.127
1.282,0.142
1.284,0.151
1.286,0.166
1.288,0.176
1.29,0.176
1.292,0.176
1.294,0.185
1.296,0.185
1.298,0.176
1.3,0.181
1.302,0.19
1.304,0.19
1.306,0.181
1.308,0.2
1.31,0.2
1.312,0.195
1.314,0.181
1.316,0.2
1.318,0.21
1.32,0.205
1.322,0.22
1.324,0.215
1.326,0.21
1.328,0.224
1.33,0.239
1.332,0.234
1.334,0.234
1.336,0.239
1.338,0.264
1.34,0.278
1.342,0.293
1.344,0.317
1.346,0.312
1.348,0.317
1.35,0.312
1.352,0.322
1.354,0.312
1.356,0.288
1.358,0.278
1.36,0.268
1.362,0.278
1.364,0.293
1.366,0.293
1.368,0.303
1.37,0.303
1.372,0.293
1.374,0.283
1.376,0.278
1.378,0.273
1.38,0.278
1.382,0.259
1.384,0.244
1.386,0.234
1.388,0.234
1.39,0.234
1.392,0.21
1.394,0.22
1.396,0.19
1.398,0.166
1.4,0.151
1.402,0.156
1.404,0.161
1.406,0.171
1.408,0.161
1.41,0.142
1.412,0.137
1.414,0.117
1.416,0.107
1.418,0.107
1.42,0.112
1.422,0.112
1.424,0.122
1.426,0.117
1.428,0.107
1.43,0.088
1.432,0.083
1.434,0.083
1.436,0.073
1.438,0.068
1.44,0.068
1.442,0.073
1.444,0.078
1.446,0.068
1.448,0.063
1.45,0.054
1.452,0.054
1.454,0.049
1.456,0.039
1.458,0.049
1.46,0.049
1.462,0.049
1.464,0.049
1.466,0.049
1.468,0.049
1.47,0.049
1.472,0.054
1.474,0.063
1.476,0.054
1.478,0.054
1.48,0.063
1.482,0.068
1.484,0.059
1.486,0.054
1.488,0.054
1.49,0.054
1.492,0.054
1.494,0.054
1.496,0.054
1.498,0.039
1.5,0.044
1.502,0.039
1.504,0.034
1.506,0.02
1.508,0.02
1.51,0.02
1.512,0.02
1.514,0.02
1.516,0.02
1.518,0.02
1.52,0.02
1.522,0.034
1.524,0.044
1.526,0.059
1.528,0.063
1.53,0.063
1.532,0.054
1.534,0.049
1.536,0.049
1.538,0.054
1.54,0.054
1.542,0.049
1.544,0.049
1.546,0.049
1.548,0.054
1.55,0.054
1.552,0.054
1.554,0.044
1.556,0.044
1.558,0.039
1.56,0.039
1.562,0.044
1.564,0.044
1.566,0.039
1.568,0.039
1.57,0.059
1.572,0.068
1.574,0.073
1.576,0.083
1.578,0.083
1.58,0.078
1.582,0.073
1.584,0.068
1.586,0.049
1.588,0.049
1.59,0.039
1.592,0.024
1.594,0.034
1.596,0.044
1.598,0.044
1.6,0.054
1.602,0.049
1.604,0.063
1.606,0.063
1.608,0.059
1.61,0.059
1.612,0.059
1.614,0.059
1.616,0.059
1.618,0.059
1.62,0.059
1.622,0.044
1.624,0.059
1.626,0.059
1.628,0.059
1.63,0.059
1.632,0.059
1.634,0.054
1.636,0.054
1.638,0.054
1.64,0.054
1.642,0.049
1.644,0.034
1.646,0.054
1.648,0.044
1.65,0.034
1.652,0.049
1.654,0.068
1.656,0.073
1.658,0.059
1.66,0.059
1.662,0.059
1.664,0.054
1.666,0.044
1.668,0.044
1.67,0.054
1.672,0.063
1.674,0.059
1.676,0.049
1.678,0.034
1.68,0.029
1.682,0.039
1.684,0.044
1.686,0.049
1.688,0.054
1.69,0.059
1.692,0.049
1.694,0.054
1.696,0.059
1.698,0.049
1.7,0.054
1.702,0.059
1.704,0.044
1.706,0.044
1.708,0.029
1.71,0.029
1.712,0.044
1.714,0.054
1.716,0.039
1.718,0.049
1.72,0.059
1.722,0.063
1.724,0.049
1.726,0.039
1.728,0.034
1.73,0.049
1.732,0.059
1.734,0.063
1.736,0.073
1.738,0.063
1.74,0.063
1.742,0.068
1.744,0.068
1.746,0.054
1.748,0.054
1.75,0.054
1.752,0.054
1.754,0.044
1.756,0.034
1.758,0.029
1.76,0.029
1.762,0.044
1.764,0.044
1.766,0.044
1.768,0.044
1.77,0.054
1.772,0.054
1.774,0.054
1.776,0.049
1.778,0.059
1.78,0.054
1.782,0.054
1.784,0.054
1.786,0.068
1.788,0.073
1.79,0.073
1.792,0.073
1.794,0.073
1.796,0.073
1.798,0.068
1.8,0.063
1.802,0.073
1.804,0.073
1.806,0.073
1.808,0.073
1.81,0.068
1.812,0.059
1.814,0.054
1.816,0.044
1.818,0.02
1.82,0.024
1.822,0.029
1.824,0.049
1.826,0.054
1.828,0.059
1.83,0.063
1.832,0.068
1.834,0.068
1.836,0.068
1.838,0.068
1.84,0.068
1.842,0.068
1.844,0.068
1.846,0.068
1.848,0.068
1.85,0.068
1.852,0.068
1.854,0.068
1.856,0.068
1.858,0.059
1.86,0.059
1.862,0.059
1.864,0.059
1.866,0.059
1.868,0.059
1.87,0.059
1.872,0.059
1.874,0.049
1.876,0.049
1.878,0.049
1.88,0.049
1.882,0.044
1.884,0.039
1.886,0.034
1.888,0.029
1.89,0.02
1.892,0.02
1.894,0.02
1.896,0.02
1.898,0.034
1.9,0.039
1.902,0.044
1.904,0.049
1.906,0.063
1.908,0.078
1.91,0.093
1.912,0.107
1.914,0.098
1.916,0.088
1.918,0.078
1.92,0.068
1.922,0.068
1.924,0.068
1.926,0.068
1.928,0.068
1.93,0.068
1.932,0.068
1.934,0.068
1.936,0.068
1.938,0.078
1.94,0.088
1.942,0.093
1.944,0.107
1.946,0.098
1.948,0.102
1.95,0.107
1.952,0.117
1.954,0.112
1.956,0.098
1.958,0.083
1.96,0.088
1.962,0.093
1.964,0.102
1.966,0.102
1.968,0.093
1.97,0.102
1.972,0.117
1.974,0.127
1.976,0.137
1.978,0.142
1.98,0.142
1.982,0.142
1.984,0.137
1.986,0.132
1.988,0.132
1.99,0.127
1.992,0.122
1.994,0.127
1.996,0.132
1.998,0.142
2.0,0.146
2.002,0.146
2.004,0.142
2.006,0.132
2.008,0.137
2.01,0.132
2.012,0.127
2.014,0.107
2.016,0.088
2.018,0.078
2.02,0.059
2.022,0.039
2.024,0.02
2.026,0.044
2.028,0.044
2.03,0.02
2.032,0.01
2.034,0.01
2.036,0.02
2.038,0.02
2.04,0.005
2.042,-0.005
2.044,-0.005
2.046,-0.015
2.048,-0.015
2.05,-0.005
2.052,-0.005
2.054,-0.005
2.056,0.005
2.058,-0.005
2.06,-0.01
2.062,-0.024
2.064,-0.029
2.066,-0.01
2.068,-0.02
2.07,0.0
2.072,0.02
2.074,0.01
2.076,0.005
2.078,0.005
2.08,0.0
2.082,0.01
2.084,-0.01
2.086,-0.015
2.088,-0.005
2.09,-0.01
2.092,-0.01
2.094,0.024
2.096,0.054
2.098,0.068
2.1,0.112
2.102,0.166
2.104,0.21
2.106,0.317
2.108,0.439
2.11,0.512
2.112,0.595
2.114,0.693
2.116,0.747
2.118,0.708
2.12,0.625
2.122,0.527
2.124,0.415
2.126,0.283
2.128,0.2
2.13,0.142
2.132,0.039
2.134,-0.059
2.136,-0.112
2.138,-0.142
2.14,-0.142
2.142,-0.122
2.144,-0.112
2.146,-0.083
2.148,-0.059
2.15,-0.059
2.152,-0.02
2.154,0.02
2.156,0.024
2.158,0.015
2.16,0.034
2.162,0.039
2.164,0.02
2.166,0.034
2.168,0.039
2.17,0.034
2.172,0.024
2.174,0.024
2.176,0.024
2.178,0.024
2.18,0.044
2.182,0.044
2.184,0.039
2.186,0.029
2.188,0.024
2.19,0.034
2.192,0.024
2.194,0.024
2.196,0.024
2.198,0.044
2.2,0.054
2.202,0.063
2.204,0.073
2.206,0.063
2.208,0.054
2.21,0.054
2.212,0.054
2.214,0.034
2.216,0.029
2.218,0.054
2.22,0.049
2.222,0.054
2.224,0.049
2.226,0.039
2.228,0.034
2.23,0.024
2.232,0.024
2.234,0.024
2.236,0.034
2.238,0.054
2.24,0.059
2.242,0.063
2.244,0.068
2.246,0.073
2.248,0.073
2.25,0.078
2.252,0.093
2.254,0.073
2.256,0.078
2.258,0.073
2.26,0.068
2.262,0.068
2.264,0.068
2.266,0.078
2.268,0.078
2.27,0.088
2.272,0.068
2.274,0.059
2.276,0.068
2.278,0.068
2.28,0.063
2.282,0.054
2.284,0.049
2.286,0.044
2.288,0.049
2.29,0.049
2.292,0.044
2.294,0.063
2.296,0.063
2.298,0.068
2.3,0.068
2.302,0.098
2.304,0.117
2.306,0.122
2.308,0.127
2.31,0.117
2.312,0.102
2.314,0.102
2.316,0.107
2.318,0.102
2.32,0.102
2.322,0.107
2.324,0.107
2.326,0.107
2.328,0.107
2.33,0.117
2.332,0.117
2.334,0.107
2.336,0.102
2.338,0.102
2.34,0.093
2.342,0.107
2.344,0.132
2.346,0.137
2.348,0.137
2.35,0.156
2.352,0.19
2.354,0.215
2.356,0.224
2.358,0.244
2.36,0.244
2.362,0.244
2.364,0.264
2.366,0.264
2.368,0.244
2.37,0.229
2.372,0.22
2.374,0.229
2.376,0.229
2.378,0.229
2.38,0.239
2.382,0.239
2.384,0.249
2.386,0.249
2.388,0.264
2.39,0.259
2.392,0.239
2.394,0.234
2.396,0.229
2.398,0.21
2.4,0.205
2.402,0.185
2.404,0.176
2.406,0.195
2.408,0.205
2.41,0.215
2.412,0.229
2.414,0.249
2.416,0.268
2.418,0.264
2.42,0.264
2.422,0.254
2.424,0.254
2.426,0.254
2.428,0.229
2.43,0.229
2.432,0.2
2.434,0.176
2.436,0.161
2.438,0.156
2.44,0.151
2.442,0.151
2.444,0.132
2.446,0.117
2.448,0.117
2.45,0.102
2.452,0.098
2.454,0.073
2.456,0.063
2.458,0.049
2.46,0.044
2.462,0.054
2.464,0.049
2.466,0.034
2.468,0.034
2.47,0.059
2.472,0.054
2.474,0.054
2.476,0.059
2.478,0.063
2.48,0.068
2.482,0.059
2.484,0.054
2.486,0.044
2.488,0.044
2.49,0.039
2.492,0.029
2.494,0.039
2.496,0.039
2.498,0.039
2.5,0.039
2.502,0.029
2.504,0.029
2.506,0.029
2.508,0.034
2.51,0.034
2.512,0.024
2.514,0.024
2.516,0.034
2.518,0.039
2.52,0.02
2.522,0.005
2.524,-0.005
2.526,0.015
2.528,0.024
2.53,0.034
2.532,0.044
2.534,0.034
2.536,0.044
2.538,0.044
2.54,0.044
2.542,0.039
2.544,0.039
2.546,0.039
2.548,0.039
2.55,0.049
2.552,0.049
2.554,0.049
2.556,0.049
2.558,0.034
2.56,0.034
2.562,0.039
2.564,0.034
2.566,0.034
2.568,0.024
2.57,0.02
2.572,0.02
2.574,0.034
2.576,0.034
2.578,0.029
2.58,0.029
2.582,0.029
2.584,0.034
2.586,0.034
2.588,0.034
2.59,0.044
2.592,0.044
2.594,0.039
2.596,0.039
2.598,0.049
2.6,0.054
2.602,0.054
2.604,0.059
2.606,0.049
2.608,0.039
2.61,0.024
2.612,0.015
2.614,0.024
2.616,0.029
2.618,0.034
2.62,0.039
2.622,0.054
2.624,0.068
2.626,0.073
2.628,0.073
2.63,0.068
2.632,0.063
2.634,0.049
2.636,0.044
2.638,0.049
2.64,0.063
2.642,0.063
2.644,0.059
2.646,0.068
2.648,0.068
2.65,0.068
2.652,0.068
2.654,0.063
2.656,0.059
2.658,0.039
2.66,0.049
2.662,0.049
2.664,0.049
2.666,0.049
2.668,0.049
2.67,0.049
2.672,0.054
2.674,0.059
2.676,0.063
2.678,0.049
2.68,0.034
2.682,0.054
2.684,0.044
2.686,0.034
2.688,0.049
2.69,0.068
2.692,0.073
2.694,0.063
2.696,0.059
2.698,0.054
2.7,0.044
2.702,0.044
2.704,0.044
2.706,0.054
2.708,0.063
2.71,0.073
2.712,0.068
2.714,0.059
2.716,0.059
2.718,0.054
2.72,0.054
2.722,0.054
2.724,0.054
2.726,0.063
2.728,0.049
2.73,0.049
2.732,0.049
2.734,0.044
2.736,0.054
2.738,0.063
2.74,0.054
2.742,0.034
2.744,0.02
2.746,0.02
2.748,0.034
2.75,0.034
2.752,0.02
2.754,0.029
2.756,0.039
2.758,0.063
2.76,0.059
2.762,0.059
2.764,0.063
2.766,0.059
2.768,0.059
2.77,0.054
2.772,0.054
2.774,0.044
2.776,0.044
2.778,0.049
2.78,0.049
2.782,0.049
2.784,0.054
2.786,0.059
2.788,0.063
2.79,0.059
2.792,0.054
2.794,0.054
2.796,0.059
2.798,0.059
2.8,0.054
2.802,0.049
2.804,0.044
2.806,0.054
2.808,0.054
2.81,0.054
2.812,0.049
2.814,0.059
2.816,0.054
2.818,0.054
2.82,0.054
2.822,0.044
2.824,0.044
2.826,0.039
2.828,0.034
2.83,0.044
2.832,0.044
2.834,0.039
2.836,0.034
2.838,0.044
2.84,0.044
2.842,0.044
2.844,0.044
2.846,0.054
2.848,0.059
2.85,0.068
2.852,0.073
2.854,0.078
2.856,0.083
2.858,0.078
2.86,0.068
2.862,0.063
2.864,0.059
2.866,0.054
2.868,0.049
2.87,0.039
2.872,0.039
2.874,0.039
2.876,0.039
2.878,0.029
2.88,0.02
2.882,0.01
2.884,0.0
2.886,0.02
2.888,0.029
2.89,0.039
2.892,0.049
2.894,0.059
2.896,0.059
2.898,0.059
2.9,0.059
2.902,0.059
2.904,0.059
2.906,0.059
2.908,0.059
2.91,0.049
2.912,0.049
2.914,0.049
2.916,0.049
2.918,0.059
2.92,0.059
2.922,0.059
2.924,0.059
2.926,0.049
2.928,0.039
2.93,0.029
2.932,0.02
2.934,0.029
2.936,0.029
2.938,0.029
2.94,0.029
2.942,0.039
2.944,0.039
2.946,0.039
2.948,0.039
2.95,0.029
2.952,0.029
2.954,0.029
2.956,0.029
2.958,0.039
2.96,0.039
2.962,0.039
2.964,0.049
2.966,0.054
2.968,0.054
2.97,0.063
2.972,0.059
2.974,0.063
2.976,0.068
2.978,0.078
2.98,0.078
2.982,0.083
2.984,0.088
2.986,0.112
2.988,0.132
2.99,0.127
2.992,0.112
2.994,0.088
2.996,0.073
2.998,0.063
3.0,0.059
3.002,0.054
3.004,0.068
3.006,0.078
3.008,0.088
3.01,0.093
3.012,0.098
3.014,0.093
3.016,0.093
3.018,0.093
3.02,0.088
3.022,0.088
3.024,0.093
3.026,0.093
3.028,0.093
3.03,0.073
3.032,0.059
3.034,0.059
3.036,0.068
3.038,0.068
3.04,0.054
3.042,0.039
3.044,0.034
3.046,0.02
3.048,0.005
3.05,-0.01
3.052,0.005
3.054,-0.005
3.056,-0.029
3.058,-0.039
3.06,-0.039
3.062,-0.039
3.064,-0.049
3.066,-0.073
3.068,-0.083
3.07,-0.083
3.072,-0.093
3.074,-0.093
3.076,-0.093
3.078,-0.102
3.08,-0.102
3.082,-0.093
3.084,-0.088
3.086,-0.063
3.088,-0.059
3.09,-0.044
3.092,-0.029
3.094,-0.059
3.096,-0.049
3.098,-0.039
3.1,-0.039
3.102,-0.059
3.104,-0.063
3.106,-0.073
3.108,-0.078
3.11,-0.078
3.112,-0.093
3.114,-0.102
3.116,-0.117
3.118,-0.127
3.12,-0.122
3.122,-0.112
3.124,-0.098
3.126,-0.054
3.128,0.01
3.13,0.093
3.132,0.161
3.134,0.244
3.136,0.356
3.138,0.459
3.14,0.537
3.142,0.6
3.144,0.62
3.146,0.547
3.148,0.439
3.15,0.337
3.152,0.215
3.154,0.112
3.156,-0.005
3.158,-0.137
3.16,-0.234
3.162,-0.298
3.164,-0.356
3.166,-0.366
3.168,-0.337
3.17,-0.317
3.172,-0.288
3.174,-0.234
3.176,-0.205
3.178,-0.185
3.18,-0.137
3.182,-0.122
3.184,-0.132
3.186,-0.083
3.188,-0.049
3.19,-0.088
3.192,-0.078
3.194,-0.078
3.196,-0.088
3.198,-0.102
3.2,-0.122
3.202,-0.122
3.204,-0.122
3.206,-0.102
3.208,-0.088
3.21,-0.088
3.212,-0.093
3.214,-0.093
3.216,-0.083
3.218,-0.093
3.22,-0.093
3.222,-0.093
3.224,-0.083
3.226,-0.083
3.228,-0.083
3.23,-0.083
3.232,-0.083
3.234,-0.093
3.236,-0.093
3.238,-0.093
3.24,-0.107
3.242,-0.107
3.244,-0.078
3.246,-0.078
3.248,-0.073
3.25,-0.078
3.252,-0.088
3.254,-0.093
3.256,-0.083
3.258,-0.083
3.26,-0.083
3.262,-0.073
3.264,-0.083
3.266,-0.088
3.268,-0.093
3.27,-0.098
3.272,-0.088
3.274,-0.093
3.276,-0.093
3.278,-0.083
3.28,-0.088
3.282,-0.078
3.284,-0.078
3.286,-0.078
3.288,-0.093
3.29,-0.098
3.292,-0.093
3.294,-0.098
3.296,-0.088
3.298,-0.107
3.3,-0.117
3.302,-0.107
3.304,-0.088
3.306,-0.083
3.308,-0.083
3.31,-0.078
3.312,-0.068
3.314,-0.059
3.316,-0.054
3.318,-0.054
3.32,-0.039
3.322,-0.044
3.324,-0.044
3.326,-0.049
3.328,-0.044
3.33,-0.039
3.332,-0.049
3.334,-0.059
3.336,-0.049
3.338,-0.063
3.34,-0.063
3.342,-0.059
3.344,-0.063
3.346,-0.063
3.348,-0.059
3.35,-0.059
3.352,-0.068
3.354,-0.068
3.356,-0.059
3.358,-0.059
3.36,-0.039
3.362,-0.024
3.364,-0.005
3.366,0.005
3.368,0.005
3.37,0.024
3.372,0.024
3.374,0.02
3.376,0.02
3.378,0.044
3.38,0.059
3.382,0.059
3.384,0.063
3.386,0.059
3.388,0.054
3.39,0.068
3.392,0.063
3.394,0.049
3.396,0.039
3.398,0.034
3.4,0.044
3.402,0.054
3.404,0.063
3.406,0.083
3.408,0.073
3.41,0.073
3.412,0.063
3.414,0.068
3.416,0.078
3.418,0.073
3.42,0.083
3.422,0.093
3.424,0.093
3.426,0.107
3.428,0.107
3.43,0.117
3.432,0.107
3.434,0.098
3.436,0.088
3.438,0.083
3.44,0.073
3.442,0.083
3.444,0.068
3.446,0.059
3.448,0.068
3.45,0.068
3.452,0.068
3.454,0.044
3.456,0.059
3.458,0.034
3.46,0.015
3.462,0.005
3.464,-0.01
3.466,-0.015
3.468,-0.015
3.47,-0.034
3.472,-0.034
3.474,-0.029
3.476,-0.039
3.478,-0.039
3.48,-0.068
3.482,-0.073
3.484,-0.083
3.486,-0.083
3.488,-0.073
3.49,-0.078
3.492,-0.093
3.494,-0.093
3.496,-0.073
3.498,-0.083
3.5,-0.088
3.502,-0.088
3.504,-0.088
3.506,-0.088
3.508,-0.102
3.51,-0.112
3.512,-0.112
3.514,-0.112
3.516,-0.117
3.518,-0.127
3.52,-0.122
3.522,-0.127
3.524,-0.132
3.526,-0.137
3.528,-0.132
3.53,-0.127
3.532,-0.122
3.534,-0.112
3.536,-0.122
3.538,-0.132
3.54,-0.132
3.542,-0.122
3.544,-0.102
3.546,-0.107
3.548,-0.107
3.55,-0.102
3.552,-0.112
3.554,-0.112
3.556,-0.112
3.558,-0.112
3.56,-0.122
3.562,-0.112
3.564,-0.112
3.566,-0.112
3.568,-0.122
3.57,-0.127
3.572,-0.132
3.574,-0.137
3.576,-0.151
3.578,-0.156
3.58,-0.161
3.582,-0.166
3.584,-0.161
3.586,-0.151
3.588,-0.137
3.59,-0.132
3.592,-0.122
3.594,-0.122
3.596,-0.117
3.598,-0.107
3.6,-0.093
3.602,-0.093
3.604,-0.098
3.606,-0.098
3.608,-0.102
3.61,-0.102
3.612,-0.107
3.614,-0.112
3.616,-0.122
3.618,-0.122
3.62,-0.127
3.622,-0.127
3.624,-0.112
3.626,-0.112
3.628,-0.117
3.63,-0.117
3.632,-0.117
3.634,-0.117
3.636,-0.122
3.638,-0.122
3.64,-0.132
3.642,-0.137
3.644,-0.142
3.646,-0.146
3.648,-0.132
3.65,-0.117
3.652,-0.112
3.654,-0.112
3.656,-0.107
3.658,-0.102
3.66,-0.107
3.662,-0.102
3.664,-0.093
3.666,-0.073
3.668,-0.068
3.67,-0.068
3.672,-0.083
3.674,-0.088
3.676,-0.093
3.678,-0.098
3.68,-0.098
3.682,-0.098
3.684,-0.112
3.686,-0.098
3.688,-0.112
3.69,-0.117
3.692,-0.122
3.694,-0.127
3.696,-0.122
3.698,-0.122
3.7,-0.122
3.702,-0.122
3.704,-0.137
3.706,-0.151
3.708,-0.132
3.71,-0.142
3.712,-0.137
3.714,-0.117
3.716,-0.093
3.718,-0.083
3.72,-0.098
3.722,-0.098
3.724,-0.098
3.726,-0.102
3.728,-0.107
3.73,-0.112
3.732,-0.107
3.734,-0.102
3.736,-0.107
3.738,-0.117
3.74,-0.132
3.742,-0.137
3.744,-0.117
3.746,-0.112
3.748,-0.107
3.75,-0.102
3.752,-0.117
3.754,-0.137
3.756,-0.142
3.758,-0.146
3.76,-0.132
3.762,-0.112
3.764,-0.093
3.766,-0.093
3.768,-0.093
3.77,-0.107
3.772,-0.107
3.774,-0.093
3.776,-0.098
3.778,-0.117
3.78,-0.112
3.782,-0.107
3.784,-0.102
3.786,-0.117
3.788,-0.127
3.79,-0.132
3.792,-0.132
3.794,-0.137
3.796,-0.146
3.798,-0.151
3.8,-0.142
3.802,-0.142
3.804,-0.137
3.806,-0.137
3.808,-0.137
3.81,-0.132
3.812,-0.127
3.814,-0.122
3.816,-0.112
3.818,-0.112
3.82,-0.107
3.822,-0.098
3.824,-0.107
3.826,-0.112
3.828,-0.117
3.83,-0.122
3.832,-0.102
3.834,-0.102
3.836,-0.102
3.838,-0.107
3.84,-0.117
3.842,-0.132
3.844,-0.142
3.846,-0.151
3.848,-0.142
3.85,-0.132
3.852,-0.127
3.854,-0.122
3.856,-0.112
3.858,-0.112
3.86,-0.117
3.862,-0.122
3.864,-0.127
3.866,-0.132
3.868,-0.137
3.87,-0.142
3.872,-0.127
3.874,-0.127
3.876,-0.122
3.878,-0.122
3.88,-0.127
3.882,-0.132
3.884,-0.137
3.886,-0.146
3.888,-0.132
3.89,-0.127
3.892,-0.122
3.894,-0.117
3.896,-0.107
3.898,-0.107
3.9,-0.107
3.902,-0.107
3.904,-0.112
3.906,-0.117
3.908,-0.122
3.91,-0.127
3.912,-0.132
3.914,-0.137
3.916,-0.142
3.918,-0.146
3.92,-0.137
3.922,-0.137
3.924,-0.137
3.926,-0.137
3.928,-0.151
3.93,-0.156
3.932,-0.161
3.934,-0.166
3.936,-0.161
3.938,-0.156
3.94,-0.151
3.942,-0.146
3.944,-0.137
3.946,-0.127
3.948,-0.117
3.95,-0.107
3.952,-0.107
3.954,-0.107
3.956,-0.107
3.958,-0.107
3.96,-0.112
3.962,-0.117
3.964,-0.122
3.966,-0.127
3.968,-0.117
3.97,-0.117
3.972,-0.117
3.974,-0.117
3.976,-0.127
3.978,-0.127
3.98,-0.127
3.982,-0.127
3.984,-0.142
3.986,-0.146
3.988,-0.151
3.99,-0.156
3.992,-0.156
3.994,-0.156
3.996,-0.156
3.998,-0.146
4.0,-0.117
4.002,-0.102
4.004,-0.078
4.006,-0.068
4.008,-0.059
4.01,-0.049
4.012,-0.034
4.014,-0.029
4.016,-0.054
4.018,-0.068
4.02,-0.063
4.022,-0.063
4.024,-0.059
4.026,-0.063
4.028,-0.078
4.03,-0.083
4.032,-0.068
4.034,-0.068
4.036,-0.068
4.038,-0.049
4.04,-0.044
4.042,-0.039
4.044,-0.039
4.046,-0.039
4.048,-0.029
4.05,-0.024
4.052,-0.02
4.054,-0.02
4.056,-0.015
4.058,-0.015
4.06,-0.02
4.062,-0.024
4.064,-0.024
4.066,-0.039
4.068,-0.039
4.07,-0.029
4.072,-0.039
4.074,-0.063
4.076,-0.088
4.078,-0.102
4.08,-0.107
4.082,-0.122
4.084,-0.137
4.086,-0.122
4.088,-0.127
4.09,-0.156
4.092,-0.171
4.094,-0.176
4.096,-0.171
4.098,-0.176
4.1,-0.195
4.102,-0.2
4.104,-0.185
4.106,-0.19
4.108,-0.185
4.11,-0.181
4.112,-0.166
4.114,-0.151
4.116,-0.127
4.118,-0.107
4.12,-0.107
4.122,-0.117
4.124,-0.117
4.126,-0.117
4.128,-0.151
4.13,-0.146
4.132,-0.142
4.134,-0.146
4.136,-0.161
4.138,-0.161
4.14,-0.166
4.142,-0.166
4.144,-0.185
4.146,-0.181
4.148,-0.19
4.15,-0.205
4.152,-0.185
4.154,-0.132
4.156,-0.093
4.158,-0.068
4.16,-0.005
4.162,0.029
4.164,0.044
4.166,0.102
4.168,0.195
4.17,0.278
4.172,0.4
4.174,0.537
4.176,0.639
4.178,0.63
4.18,0.508
4.182,0.381
4.184,0.268
4.186,0.156
4.188,0.034
4.19,-0.083
4.192,-0.185
4.194,-0.273
4.196,-0.337
4.198,-0.366
4.2,-0.356
4.202,-0.327
4.204,-0.298
4.206,-0.249
4.208,-0.205
4.21,-0.185
4.212,-0.156
4.214,-0.156
4.216,-0.151
4.218,-0.142
4.22,-0.122
4.222,-0.117
4.224,-0.107
4.226,-0.112
4.228,-0.117
4.23,-0.132
4.232,-0.151
4.234,-0.171
4.236,-0.181
4.238,-0.19
4.24,-0.181
4.242,-0.137
4.244,-0.117
4.246,-0.102
4.248,-0.083
4.25,-0.093
4.252,-0.102
4.254,-0.102
4.256,-0.102
4.258,-0.098
4.26,-0.102
4.262,-0.107
4.264,-0.112
4.266,-0.102
4.268,-0.112
4.27,-0.112
4.272,-0.112
4.274,-0.127
4.276,-0.127
4.278,-0.098
4.28,-0.098
4.282,-0.107
4.284,-0.117
4.286,-0.132
4.288,-0.142
4.29,-0.132
4.292,-0.132
4.294,-0.132
4.296,-0.122
4.298,-0.107
4.3,-0.098
4.302,-0.088
4.304,-0.078
4.306,-0.078
4.308,-0.083
4.31,-0.083
4.312,-0.073
4.314,-0.098
4.316,-0.088
4.318,-0.088
4.32,-0.088
4.322,-0.102
4.324,-0.107
4.326,-0.102
4.328,-0.107
4.33,-0.088
4.332,-0.098
4.334,-0.098
4.336,-0.078
4.338,-0.063
4.34,-0.063
4.342,-0.068
4.344,-0.068
4.346,-0.078
4.348,-0.068
4.35,-0.063
4.352,-0.063
4.354,-0.049
4.356,-0.054
4.358,-0.054
4.36,-0.059
4.362,-0.049
4.364,-0.039
4.366,-0.044
4.368,-0.049
4.37,-0.059
4.372,-0.083
4.374,-0.093
4.376,-0.098
4.378,-0.073
4.38,-0.054
4.382,-0.029
4.384,-0.01
4.386,-0.005
4.388,0.0
4.39,0.015
4.392,0.02
4.394,0.005
4.396,0.005
4.398,0.01
4.4,0.005
4.402,-0.005
4.404,0.015
4.406,0.015
4.408,0.01
4.41,0.02
4.412,0.044
4.414,0.059
4.416,0.059
4.418,0.073
4.42,0.068
4.422,0.063
4.424,0.078
4.426,0.093
4.428,0.088
4.43,0.088
4.432,0.093
4.434,0.102
4.436,0.102
4.438,0.102
4.44,0.112
4.442,0.112
4.444,0.122
4.446,0.122
4.448,0.137
4.45,0.146
4.452,0.132
4.454,0.132
4.456,0.132
4.458,0.127
4.46,0.137
4.462,0.132
4.464,0.137
4.466,0.137
4.468,0.127
4.47,0.117
4.472,0.112
4.474,0.112
4.476,0.122
4.478,0.107
4.48,0.098
4.482,0.088
4.484,0.088
4.486,0.088
4.488,0.063
4.49,0.088
4.492,0.063
4.494,0.044
4.496,0.034
4.498,0.034
4.5,0.034
4.502,0.039
4.504,0.024
4.506,0.01
4.508,0.01
4.51,-0.005
4.512,-0.01
4.514,-0.015
4.516,-0.015
4.518,-0.02
4.52,-0.015
4.522,-0.029
4.524,-0.039
4.526,-0.059
4.528,-0.063
4.53,-0.063
4.532,-0.073
4.534,-0.078
4.536,-0.078
4.538,-0.088
4.54,-0.088
4.542,-0.102
4.544,-0.112
4.546,-0.098
4.548,-0.083
4.55,-0.073
4.552,-0.068
4.554,-0.068
4.556,-0.068
4.558,-0.068
4.56,-0.068
4.562,-0.078
4.564,-0.078
4.566,-0.078
4.568,-0.073
4.57,-0.063
4.572,-0.073
4.574,-0.073
4.576,-0.063
4.578,-0.063
4.58,-0.078
4.582,-0.088
4.584,-0.093
4.586,-0.088
4.588,-0.083
4.59,-0.078
4.592,-0.073
4.594,-0.078
4.596,-0.063
4.598,-0.059
4.6,-0.054
4.602,-0.063
4.604,-0.068
4.606,-0.073
4.608,-0.078
4.61,-0.073
4.612,-0.068
4.614,-0.063
4.616,-0.059
4.618,-0.063
4.62,-0.063
4.622,-0.059
4.624,-0.063
4.626,-0.073
4.628,-0.093
4.63,-0.107
4.632,-0.117
4.634,-0.083
4.636,-0.073
4.638,-0.068
4.64,-0.059
4.642,-0.049
4.644,-0.044
4.646,-0.044
4.648,-0.044
4.65,-0.054
4.652,-0.054
4.654,-0.059
4.656,-0.059
4.658,-0.054
4.66,-0.054
4.662,-0.059
4.664,-0.059
4.666,-0.039
4.668,-0.039
4.67,-0.044
4.672,-0.044
4.674,-0.049
4.676,-0.049
4.678,-0.049
4.68,-0.049
4.682,-0.063
4.684,-0.059
4.686,-0.063
4.688,-0.073
4.69,-0.063
4.692,-0.054
4.694,-0.054
4.696,-0.044
4.698,-0.029
4.7,-0.005
4.702,0.005
4.704,0.01
4.706,0.0
4.708,0.0
4.71,0.0
4.712,0.0
4.714,0.0
4.716,0.0
4.718,-0.015
4.72,0.0
4.722,0.01
4.724,0.01
4.726,0.01
4.728,0.01
4.73,-0.005
4.732,-0.005
4.734,-0.005
4.736,-0.005
4.738,0.0
4.74,-0.015
4.742,0.005
4.744,-0.005
4.746,-0.024
4.748,-0.02
4.75,-0.01
4.752,-0.015
4.754,-0.034
4.756,-0.049
4.758,-0.063
4.76,-0.083
4.762,-0.068
4.764,-0.054
4.766,-0.029
4.768,-0.005
4.77,0.015
4.772,0.02
4.774,0.02
4.776,0.029
4.778,0.029
4.78,0.024
4.782,0.02
4.784,0.015
4.786,0.015
4.788,0.0
4.79,0.0
4.792,0.0
4.794,0.005
4.796,0.015
4.798,0.024
4.8,0.015
4.802,0.005
4.804,-0.01
4.806,-0.01
4.808,0.005
4.81,0.0
4.812,-0.02
4.814,-0.015
4.816,-0.01
4.818,-0.015
4.82,-0.029
4.822,-0.039
4.824,-0.044
4.826,-0.039
4.828,-0.039
4.83,-0.044
4.832,-0.044
4.834,-0.024
4.836,-0.015
4.838,0.0
4.84,0.01
4.842,-0.005
4.844,-0.005
4.846,-0.005
4.848,-0.005
4.85,0.0
4.852,-0.005
4.854,-0.005
4.856,0.0
4.858,0.015
4.86,0.015
4.862,0.015
4.864,0.015
4.866,0.02
4.868,0.015
4.87,0.01
4.872,0.0
4.874,0.01
4.876,0.005
4.878,0.005
4.88,0.005
4.882,-0.01
4.884,-0.015
4.886,-0.024
4.888,-0.034
4.89,-0.034
4.892,-0.034
4.894,-0.039
4.896,-0.044
4.898,-0.029
4.9,-0.024
4.902,-0.02
4.904,-0.015
4.906,-0.005
4.908,0.0
4.91,0.01
4.912,0.015
4.914,0.0
4.916,0.015
4.918,0.039
4.92,0.029
4.922,0.015
4.924,0.01
4.926,0.005
4.928,0.0
4.93,-0.005
4.932,-0.01
4.934,-0.015
4.936,-0.02
4.938,-0.024
4.94,-0.029
4.942,-0.034
4.944,-0.039
4.946,-0.029
4.948,-0.02
4.95,-0.01
4.952,0.0
4.954,0.0
4.956,0.0
4.958,0.0
4.96,0.0
4.962,0.005
4.964,0.01
4.966,0.015
4.968,0.02
4.97,0.005
4.972,0.0
4.974,-0.005
4.976,-0.01
4.978,-0.02
4.98,-0.02
4.982,-0.02
4.984,-0.02
4.986,-0.034
4.988,-0.039
4.99,-0.044
4.992,-0.049
4.994,-0.059
4.996,-0.059
4.998,-0.059
5.0,-0.059
5.002,-0.034
5.004,-0.02
5.006,-0.005
5.008,0.01
5.01,0.01
5.012,0.01
5.014,0.01
5.016,0.01
5.018,0.01
5.02,0.01
5.022,0.01
5.024,0.01
5.026,0.0
5.028,0.0
5.03,0.0
5.032,0.0
5.034,0.0
5.036,0.0
5.038,0.0
5.04,0.0
5.042,0.01
5.044,0.02
5.046,0.024
5.048,0.039
5.05,0.039
5.052,0.044
5.054,0.049
5.056,0.059
5.058,0.024
5.06,-0.01
5.062,-0.044
5.064,-0.059
5.066,-0.005
5.068,0.044
5.07,0.083
5.072,0.112
5.074,0.098
5.076,0.098
5.078,0.093
5.08,0.088
5.082,0.098
5.084,0.102
5.086,0.107
5.088,0.107
5.09,0.098
5.092,0.102
5.094,0.102
5.096,0.102
5.098,0.098
5.1,0.093
5.102,0.093
5.104,0.088
5.106,0.078
5.108,0.063
5.11,0.044
5.112,0.039
5.114,0.044
5.116,0.039
5.118,0.02
5.12,0.0
5.122,-0.024
5.124,-0.049
5.126,-0.073
5.128,-0.098
5.13,-0.044
5.132,-0.015
5.134,-0.01
5.136,0.01
5.138,0.01
5.14,0.02
5.142,0.02
5.144,0.005
5.146,-0.005
5.148,-0.005
5.15,-0.015
5.152,-0.015
5.154,-0.02
5.156,-0.024
5.158,-0.029
5.16,-0.024
5.162,-0.029
5.164,-0.029
5.166,-0.039
5.168,-0.039
5.17,-0.029
5.172,-0.049
5.174,-0.039
5.176,-0.029
5.178,-0.039
5.18,-0.044
5.182,-0.044
5.184,-0.049
5.186,-0.049
5.188,-0.049
5.19,-0.073
5.192,-0.063
5.194,-0.039
5.196,-0.039
5.198,-0.015
5.2,0.054
5.202,0.078
5.204,0.093
5.206,0.166
5.208,0.22
5.21,0.298
5.212,0.42
5.214,0.512
5.216,0.566
5.218,0.654
5.22,0.708
5.222,0.678
5.224,0.615
5.226,0.547
5.228,0.405
5.23,0.254
5.232,0.161
5.234,0.083
5.236,-0.02
5.238,-0.127
5.24,-0.171
5.242,-0.19
5.244,-0.19
5.246,-0.161
5.248,-0.161
5.25,-0.171
5.252,-0.166
5.254,-0.166
5.256,-0.127
5.258,-0.029
5.26,0.034
5.262,0.034
5.264,0.024
5.266,0.039
5.268,0.039
5.27,0.029
5.272,0.029
5.274,0.02
5.276,0.005
5.278,-0.005
5.28,-0.005
5.282,-0.005
5.284,0.015
5.286,0.029
5.288,0.029
5.29,0.024
5.292,0.024
5.294,0.01
5.296,-0.005
5.298,-0.01
5.3,-0.015
5.302,0.0
5.304,0.005
5.306,0.01
5.308,0.015
5.31,0.005
5.312,-0.015
5.314,-0.024
5.316,-0.034
5.318,-0.059
5.32,-0.068
5.322,-0.049
5.324,-0.059
5.326,-0.02
5.328,0.0
5.33,0.015
5.332,0.034
5.334,0.054
5.336,0.063
5.338,0.073
5.34,0.093
5.342,0.083
5.344,0.068
5.346,0.054
5.348,0.039
5.35,0.034
5.352,0.024
5.354,0.02
5.356,0.024
5.358,0.015
5.36,0.029
5.362,0.034
5.364,0.039
5.366,0.029
5.368,0.029
5.37,0.039
5.372,0.039
5.374,0.044
5.376,0.029
5.378,0.024
5.38,0.039
5.382,0.039
5.384,0.034
5.386,0.024
5.388,0.02
5.39,-0.005
5.392,-0.01
5.394,-0.02
5.396,-0.034
5.398,0.01
5.4,0.024
5.402,0.044
5.404,0.059
5.406,0.083
5.408,0.107
5.41,0.117
5.412,0.127
5.414,0.122
5.416,0.102
5.418,0.098
5.42,0.098
5.422,0.093
5.424,0.093
5.426,0.098
5.428,0.098
5.43,0.107
5.432,0.107
5.434,0.117
5.436,0.117
5.438,0.102
5.44,0.102
5.442,0.107
5.444,0.102
5.446,0.088
5.448,0.102
5.45,0.098
5.452,0.088
5.454,0.093
5.456,0.122
5.458,0.142
5.46,0.146
5.462,0.181
5.464,0.195
5.466,0.21
5.468,0.244
5.47,0.239
5.472,0.224
5.474,0.215
5.476,0.21
5.478,0.22
5.48,0.22
5.482,0.22
5.484,0.229
5.486,0.224
5.488,0.229
5.49,0.224
5.492,0.234
5.494,0.234
5.496,0.22
5.498,0.22
5.5,0.22
5.502,0.2
5.504,0.205
5.506,0.195
5.508,0.195
5.51,0.205
5.512,0.205
5.514,0.205
5.516,0.21
5.518,0.22
5.52,0.239
5.522,0.234
5.524,0.234
5.526,0.229
5.528,0.224
5.53,0.22
5.532,0.19
5.534,0.195
5.536,0.171
5.538,0.151
5.54,0.142
5.542,0.132
5.544,0.122
5.546,0.117
5.548,0.093
5.55,0.093
5.552,0.098
5.554,0.088
5.556,0.088
5.558,0.078
5.56,0.073
5.562,0.063
5.564,0.063
5.566,0.063
5.568,0.059
5.57,0.044
5.572,0.044
5.574,0.054
5.576,0.044
5.578,0.039
5.58,0.039
5.582,0.029
5.584,0.029
5.586,0.015
5.588,0.005
5.59,0.005
5.592,0.005
5.594,0.0
5.596,-0.01
5.598,0.0
5.6,0.0
5.602,0.0
5.604,0.0
5.606,0.005
5.608,0.01
5.61,0.015
5.612,0.024
5.614,0.015
5.616,-0.005
5.618,-0.015
5.62,-0.015
5.622,0.024
5.624,0.029
5.626,0.039
5.628,0.054
5.63,0.044
5.632,0.034
5.634,0.024
5.636,0.015
5.638,-0.005
5.64,0.005
5.642,0.005
5.644,0.005
5.646,0.01
5.648,0.01
5.65,0.01
5.652,0.01
5.654,0.005
5.656,0.0
5.658,-0.005
5.66,-0.01
5.662,0.0
5.664,0.015
5.666,0.034
5.668,0.044
5.67,0.034
5.672,0.024
5.674,0.02
5.676,0.02
5.678,0.034
5.68,0.034
5.682,0.029
5.684,0.029
5.686,0.024
5.688,0.024
5.69,0.02
5.692,0.015
5.694,0.005
5.696,0.005
5.698,0.0
5.7,0.0
5.702,0.005
5.704,0.005
5.706,0.0
5.708,0.0
5.71,0.015
5.712,0.02
5.714,0.02
5.716,0.024
5.718,0.044
5.72,0.049
5.722,0.054
5.724,0.059
5.726,0.049
5.728,0.059
5.73,0.059
5.732,0.054
5.734,0.049
5.736,0.044
5.738,0.029
5.74,0.024
5.742,0.024
5.744,0.034
5.746,0.029
5.748,0.02
5.75,0.01
5.752,0.01
5.754,0.01
5.756,0.01
5.758,0.02
5.76,0.029
5.762,0.024
5.764,0.049
5.766,0.059
5.768,0.059
5.77,0.059
5.772,0.059
5.774,0.044
5.776,0.044
5.778,0.044
5.78,0.044
5.782,0.039
5.784,0.024
5.786,0.044
5.788,0.034
5.79,0.015
5.792,0.02
5.794,0.029
5.796,0.024
5.798,0.02
5.8,0.02
5.802,0.02
5.804,0.015
5.806,0.015
5.808,0.015
5.81,0.024
5.812,0.034
5.814,0.039
5.816,0.039
5.818,0.034
5.82,0.039
5.822,0.034
5.824,0.034
5.826,0.034
5.828,0.034
5.83,0.024
5.832,0.01
5.834,0.01
5.836,0.01
5.838,0.005
5.84,0.005
5.842,0.005
5.844,-0.015
5.846,0.0
5.848,0.0
5.85,0.015
5.852,0.044
5.854,0.044
5.856,0.029
5.858,0.039
5.86,0.049
5.862,0.059
5.864,0.049
5.866,0.044
5.868,0.044
5.87,0.039
5.872,0.039
5.874,0.034
5.876,0.034
5.878,0.029
5.88,0.024
5.882,0.024
5.884,0.02
5.886,0.005
5.888,0.005
5.89,0.005
5.892,0.005
5.894,-0.005
5.896,-0.015
5.898,-0.02
5.9,-0.02
5.902,-0.005
5.904,0.005
5.906,0.015
5.908,0.024
5.91,0.039
5.912,0.044
5.914,0.049
5.916,0.049
5.918,0.039
5.92,0.034
5.922,0.034
5.924,0.034
5.926,0.034
5.928,0.034
5.93,0.029
5.932,0.024
5.934,0.034
5.936,0.034
5.938,0.029
5.94,0.024
5.942,0.01
5.944,0.005
5.946,0.0
5.948,-0.005
5.95,-0.01
5.952,-0.01
5.954,-0.005
5.956,-0.005
5.958,0.02
5.96,0.005
5.962,-0.029
5.964,-0.01
5.966,0.015
5.968,0.029
5.97,0.044
5.972,0.059
5.974,0.054
5.976,0.049
5.978,0.044
5.98,0.039
5.982,0.039
5.984,0.039
5.986,0.039
5.988,0.039
5.99,0.029
5.992,0.02
5.994,0.01
5.996,0.0
5.998,0.01
6.0,0.02
6.002,0.029
6.004,0.039
6.006,0.039
6.008,0.039
6.01,0.039
6.012,0.039
6.014,0.029
6.016,0.029
6.018,0.029
6.02,0.029
6.022,0.015
6.024,0.01
6.026,0.005
6.028,0.0
6.03,0.01
6.032,0.02
6.034,0.029
6.036,0.039
6.038,0.029
6.04,0.029
6.042,0.029
6.044,0.029
6.046,0.044
6.048,0.049
6.05,0.054
6.052,0.059
6.054,0.049
6.056,0.039
6.058,0.029
6.06,0.02
6.062,0.02
6.064,0.02
6.066,0.02
6.068,0.02
6.07,0.029
6.072,0.029
6.074,0.029
6.076,0.029
6.078,0.039
6.08,0.049
6.082,0.054
6.084,0.068
6.086,0.059
6.088,0.063
6.09,0.068
6.092,0.078
6.094,0.083
6.096,0.078
6.098,0.073
6.1,0.088
6.102,0.102
6.104,0.112
6.106,0.112
6.108,0.102
6.11,0.112
6.112,0.117
6.114,0.117
6.116,0.117
6.118,0.122
6.12,0.122
6.122,0.122
6.124,0.117
6.126,0.132
6.128,0.142
6.13,0.146
6.132,0.151
6.134,0.142
6.136,0.132
6.138,0.127
6.14,0.117
6.142,0.122
6.144,0.112
6.146,0.098
6.148,0.098
6.15,0.117
6.152,0.117
6.154,0.102
6.156,0.088
6.158,0.073
6.16,0.059
6.162,0.044
6.164,0.029
6.166,0.039
6.168,0.034
6.17,0.005
6.172,-0.01
6.174,-0.02
6.176,-0.01
6.178,-0.01
6.18,-0.024
6.182,-0.005
6.184,0.005
6.186,0.005
6.188,0.015
6.19,0.024
6.192,0.024
6.194,0.024
6.196,0.034
6.198,0.024
6.2,0.02
6.202,0.005
6.204,0.0
6.206,-0.01
6.208,-0.029
6.21,-0.02
6.212,-0.01
6.214,-0.005
6.216,-0.005
6.218,0.0
6.22,0.0
6.222,-0.01
6.224,-0.02
6.226,-0.044
6.228,-0.044
6.23,-0.01
6.232,0.01
6.234,0.015
6.236,0.044
6.238,0.078
6.24,0.122
6.242,0.156
6.244,0.21
6.246,0.288
6.248,0.381
6.25,0.493
6.252,0.595
6.254,0.673
6.256,0.727
6.258,0.737
6.26,0.664
6.262,0.547
6.264,0.434
6.266,0.322
6.268,0.2
6.27,0.112
6.272,0.049
6.274,-0.049
6.276,-0.142
6.278,-0.161
6.28,-0.171
6.282,-0.19
6.284,-0.161
6.286,-0.122
6.288,-0.098
6.29,-0.078
6.292,-0.059
6.294,-0.02
6.296,0.034
6.298,0.054
6.3,0.034
6.302,0.039
6.304,0.078
6.306,0.059
6.308,0.049
6.31,0.029
6.312,0.005
6.314,0.005
6.316,0.005
6.318,0.005
6.32,0.024
6.322,0.054
6.324,0.059
6.326,0.059
6.328,0.063
6.33,0.054
6.332,0.044
6.334,0.044
6.336,0.044
6.338,0.054
6.34,0.054
6.342,0.054
6.344,0.054
6.346,0.044
6.348,0.034
6.35,0.034
6.352,0.034
6.354,0.005
6.356,0.0
6.358,0.024
6.36,0.02
6.362,0.044
6.364,0.049
6.366,0.049
6.368,0.054
6.37,0.044
6.372,0.044
6.374,0.044
6.376,0.054
6.378,0.049
6.38,0.049
6.382,0.049
6.384,0.049
6.386,0.054
6.388,0.054
6.39,0.059
6.392,0.073
6.394,0.068
6.396,0.078
6.398,0.078
6.4,0.078
6.402,0.063
6.404,0.059
6.406,0.063
6.408,0.059
6.41,0.049
6.412,0.02
6.414,0.0
6.416,0.0
6.418,0.039
6.42,0.063
6.422,0.083
6.424,0.107
6.426,0.098
6.428,0.107
6.43,0.112
6.432,0.112
6.434,0.117
6.436,0.102
6.438,0.093
6.44,0.078
6.442,0.078
6.444,0.088
6.446,0.083
6.448,0.078
6.45,0.093
6.452,0.083
6.454,0.088
6.456,0.098
6.458,0.093
6.46,0.093
6.462,0.098
6.464,0.098
6.466,0.093
6.468,0.088
6.47,0.093
6.472,0.088
6.474,0.107
6.476,0.122
6.478,0.142
6.48,0.151
6.482,0.161
6.484,0.181
6.486,0.181
6.488,0.176
6.49,0.166
6.492,0.19
6.494,0.205
6.496,0.205
6.498,0.21
6.5,0.205
6.502,0.2
6.504,0.215
6.506,0.215
6.508,0.205
6.51,0.2
6.512,0.2
6.514,0.21
6.516,0.21
6.518,0.21
6.52,0.22
6.522,0.224
6.524,0.239
6.526,0.244
6.528,0.264
6.53,0.254
6.532,0.229
6.534,0.22
6.536,0.21
6.538,0.229
6.54,0.254
6.542,0.264
6.544,0.283
6.546,0.273
6.548,0.264
6.55,0.254
6.552,0.249
6.554,0.239
6.556,0.249
6.558,0.234
6.56,0.224
6.562,0.215
6.564,0.215
6.566,0.215
6.568,0.19
6.57,0.215
6.572,0.19
6.574,0.171
6.576,0.161
6.578,0.146
6.58,0.142
6.582,0.142
6.584,0.122
6.586,0.117
6.588,0.117
6.59,0.102
6.592,0.098
6.594,0.088
6.596,0.083
6.598,0.073
6.6,0.073
6.602,0.088
6.604,0.088
6.606,0.078
6.608,0.083
6.61,0.088
6.612,0.073
6.614,0.063
6.616,0.059
6.618,0.049
6.62,0.049
6.622,0.034
6.624,0.024
6.626,0.015
6.628,0.015
6.63,0.01
6.632,0.0
6.634,0.015
6.636,0.02
6.638,0.024
6.64,0.029
6.642,0.02
6.644,0.02
6.646,0.02
6.648,0.024
6.65,0.02
6.652,0.005
6.654,0.0
6.656,0.005
6.658,0.029
6.66,0.02
6.662,0.015
6.664,0.015
6.666,0.02
6.668,0.024
6.67,0.029
6.672,0.034
6.674,0.024
6.676,0.034
6.678,0.034
6.68,0.034
6.682,0.024
6.684,0.02
6.686,0.015
6.688,0.01
6.69,0.005
6.692,0.0
6.694,-0.005
6.696,-0.01
6.698,0.0
6.7,0.005
6.702,0.015
6.704,0.015
6.706,0.015
6.708,0.005
6.71,0.0
6.712,0.0
6.714,0.024
6.716,0.024
6.718,0.02
6.72,0.02
6.722,0.029
6.724,0.034
6.726,0.034
6.728,0.034
6.73,0.029
6.732,0.024
6.734,0.015
6.736,0.01
6.738,0.015
6.74,0.015
6.742,0.01
6.744,0.01
6.746,0.02
6.748,0.02
6.75,0.015
6.752,0.015
6.754,0.01
6.756,0.01
6.758,0.01
6.76,0.01
6.762,0.01
6.764,0.02
6.766,0.02
6.768,0.015
6.77,0.015
6.772,0.015
6.774,0.005
6.776,0.005
6.778,0.02
6.78,0.034
6.782,0.034
6.784,0.029
6.786,0.02
6.788,0.02
6.79,0.02
6.792,0.02
6.794,0.015
6.796,0.01
6.798,-0.01
6.8,0.0
6.802,0.015
6.804,0.02
6.806,0.024
6.808,0.029
6.81,0.024
6.812,0.024
6.814,0.024
6.816,0.024
6.818,0.024
6.82,0.015
6.822,0.039
6.824,0.034
6.826,0.01
6.828,0.01
6.83,0.015
6.832,0.005
6.834,0.0
6.836,0.0
6.838,0.0
6.84,-0.005
6.842,0.005
6.844,0.015
6.846,0.034
6.848,0.054
6.85,0.039
6.852,0.029
6.854,0.015
6.856,0.01
6.858,0.015
6.86,0.015
6.862,0.015
6.864,0.015
6.866,0.005
6.868,-0.01
6.87,-0.01
6.872,-0.01
6.874,0.005
6.876,0.015
6.878,0.024
6.88,0.015
6.882,0.005
6.884,-0.01
6.886,-0.01
6.888,0.005
6.89,0.015
6.892,0.0
6.894,0.01
6.896,0.02
6.898,0.02
6.9,0.01
6.902,0.005
6.904,0.005
6.906,0.01
6.908,0.01
6.91,0.005
6.912,0.005
6.914,0.015
6.916,0.015
6.918,0.02
6.92,0.02
6.922,0.01
6.924,0.005
6.926,0.0
6.928,-0.005
6.93,0.005
6.932,0.005
6.934,0.01
6.936,0.02
6.938,0.034
6.94,0.034
6.942,0.034
6.944,0.034
6.946,0.029
6.948,0.024
6.95,0.02
6.952,0.01
6.954,0.01
6.956,0.005
6.958,0.005
6.96,0.005
6.962,0.005
6.964,0.005
6.966,0.0
6.968,-0.005
6.97,-0.015
6.972,-0.015
6.974,-0.02
6.976,-0.024
6.978,-0.044
6.98,-0.054
6.982,-0.063
6.984,-0.073
6.986,-0.044
6.988,-0.029
6.99,-0.01
6.992,0.005
6.994,0.029
6.996,-0.005
6.998,0.0
7.0,0.029
7.002,0.015
7.004,0.01
7.006,0.005
7.008,0.0
7.01,-0.015
7.012,-0.02
7.014,-0.024
7.016,-0.029
7.018,-0.024
7.02,-0.02
7.022,-0.015
7.024,-0.01
7.026,-0.015
7.028,-0.02
7.03,-0.024
7.032,-0.029
7.034,-0.034
7.036,-0.039
7.038,-0.044
7.04,-0.049
7.042,-0.068
7.044,-0.078
7.046,-0.088
7.048,-0.098
7.05,-0.088
7.052,-0.078
7.054,-0.068
7.056,-0.059
7.058,-0.044
7.06,-0.029
7.062,-0.015
7.064,0.0
7.066,-0.015
7.068,-0.02
7.07,-0.024
7.072,-0.029
7.074,-0.044
7.076,-0.049
7.078,-0.054
7.08,-0.059
7.082,-0.054
7.084,-0.049
7.086,-0.034
7.088,-0.02
7.09,-0.02
7.092,-0.01
7.094,-0.015
7.096,-0.015
7.098,0.0
7.1,0.01
7.102,0.01
7.104,0.0
7.106,0.0
7.108,0.01
7.11,0.015
7.112,0.024
7.114,0.015
7.116,0.005
7.118,0.005
7.12,0.01
7.122,0.02
7.124,0.02
7.126,0.039
7.128,0.044
7.13,0.059
7.132,0.059
7.134,0.059
7.136,0.063
7.138,0.059
7.14,0.054
7.142,0.044
7.144,0.034
7.146,0.039
7.148,0.039
7.15,0.039
7.152,0.034
7.154,0.024
7.156,0.029
7.158,0.044
7.16,0.049
7.162,0.024
7.164,0.01
7.166,0.005
7.168,-0.01
7.17,-0.034
7.172,-0.049
7.174,-0.034
7.176,-0.034
7.178,-0.063
7.18,-0.078
7.182,-0.083
7.184,-0.078
7.186,-0.073
7.188,-0.083
7.19,-0.078
7.192,-0.073
7.194,-0.098
7.196,-0.102
7.198,-0.107
7.2,-0.112
7.202,-0.102
7.204,-0.093
7.206,-0.088
7.208,-0.088
7.21,-0.083
7.212,-0.078
7.214,-0.073
7.216,-0.088
7.218,-0.088
7.22,-0.088
7.222,-0.098
7.224,-0.112
7.226,-0.112
7.228,-0.137
7.23,-0.137
7.232,-0.107
7.234,-0.102
7.236,-0.102
7.238,-0.088
7.24,-0.117
7.242,-0.151
7.244,-0.112
7.246,-0.059
7.248,-0.034
7.25,0.0
7.252,0.063
7.254,0.122
7.256,0.234
7.258,0.356
7.26,0.439
7.262,0.498
7.264,0.581
7.266,0.639
7.268,0.595
7.27,0.498
7.272,0.376
7.274,0.254
7.276,0.132
7.278,0.015
7.28,-0.107
7.282,-0.224
7.284,-0.317
7.286,-0.376
7.288,-0.415
7.29,-0.395
7.292,-0.307
7.294,-0.22
7.296,-0.215
7.298,-0.205
7.3,-0.156
7.302,-0.107
7.304,-0.063
7.306,-0.044
7.308,-0.044
7.31,-0.039
7.312,-0.049
7.314,-0.049
7.316,-0.049
7.318,-0.059
7.32,-0.073
7.322,-0.068
7.324,-0.063
7.326,-0.059
7.328,-0.034
7.33,-0.039
7.332,-0.049
7.334,-0.063
7.336,-0.073
7.338,-0.068
7.34,-0.073
7.342,-0.068
7.344,-0.063
7.346,-0.054
7.348,-0.054
7.35,-0.054
7.352,-0.054
7.354,-0.073
7.356,-0.102
7.358,-0.122
7.36,-0.142
7.362,-0.132
7.364,-0.107
7.366,-0.054
7.368,-0.029
7.37,0.0
7.372,0.01
7.374,0.015
7.376,0.024
7.378,0.015
7.38,0.005
7.382,-0.005
7.384,-0.005
7.386,-0.005
7.388,-0.01
7.39,-0.015
7.392,-0.02
7.394,-0.02
7.396,-0.024
7.398,-0.024
7.4,-0.015
7.402,-0.034
7.404,-0.029
7.406,-0.034
7.408,-0.039
7.41,-0.029
7.412,-0.029
7.414,-0.02
7.416,-0.02
7.418,-0.034
7.42,-0.059
7.422,-0.073
7.424,-0.068
7.426,-0.059
7.428,-0.054
7.43,-0.054
7.432,-0.049
7.434,-0.034
7.436,-0.02
7.438,-0.01
7.44,-0.005
7.442,0.02
7.444,0.024
7.446,0.034
7.448,0.039
7.45,0.044
7.452,0.049
7.454,0.039
7.456,0.029
7.458,0.039
7.46,0.024
7.462,0.024
7.464,0.029
7.466,0.034
7.468,0.034
7.47,0.039
7.472,0.039
7.474,0.049
7.476,0.049
7.478,0.059
7.48,0.059
7.482,0.054
7.484,0.054
7.486,0.059
7.488,0.054
7.49,0.049
7.492,0.063
7.494,0.059
7.496,0.049
7.498,0.034
7.5,0.054
7.502,0.063
7.504,0.059
7.506,0.102
7.508,0.117
7.51,0.132
7.512,0.166
7.514,0.181
7.516,0.176
7.518,0.176
7.52,0.181
7.522,0.166
7.524,0.161
7.526,0.156
7.528,0.161
7.53,0.161
7.532,0.171
7.534,0.171
7.536,0.185
7.538,0.176
7.54,0.161
7.542,0.161
7.544,0.161
7.546,0.161
7.548,0.176
7.55,0.176
7.552,0.185
7.554,0.181
7.556,0.166
7.558,0.151
7.56,0.142
7.562,0.127
7.564,0.122
7.566,0.093
7.568,0.068
7.57,0.102
7.572,0.127
7.574,0.151
7.576,0.151
7.578,0.166
7.58,0.142
7.582,0.122
7.584,0.112
7.586,0.102
7.588,0.093
7.59,0.088
7.592,0.063
7.594,0.054
7.596,0.049
7.598,0.029
7.6,0.02
7.602,0.0
7.604,-0.005
7.606,-0.015
7.608,-0.015
7.61,-0.015
7.612,-0.02
7.614,-0.034
7.616,-0.034
7.618,-0.029
7.62,-0.044
7.622,-0.054
7.624,-0.059
7.626,-0.059
7.628,-0.059
7.63,-0.073
7.632,-0.083
7.634,-0.083
7.636,-0.083
7.638,-0.088
7.64,-0.098
7.642,-0.098
7.644,-0.098
7.646,-0.098
7.648,-0.098
7.65,-0.117
7.652,-0.127
7.654,-0.137
7.656,-0.142
7.658,-0.122
7.66,-0.122
7.662,-0.112
7.664,-0.093
7.666,-0.068
7.668,-0.078
7.67,-0.083
7.672,-0.083
7.674,-0.098
7.676,-0.102
7.678,-0.107
7.68,-0.112
7.682,-0.107
7.684,-0.093
7.686,-0.088
7.688,-0.083
7.69,-0.073
7.692,-0.068
7.694,-0.063
7.696,-0.059
7.698,-0.063
7.7,-0.068
7.702,-0.073
7.704,-0.078
7.706,-0.078
7.708,-0.073
7.71,-0.063
7.712,-0.063
7.714,-0.063
7.716,-0.073
7.718,-0.078
7.72,-0.078
7.722,-0.073
7.724,-0.073
7.726,-0.078
7.728,-0.078
7.73,-0.078
7.732,-0.073
7.734,-0.073
7.736,-0.073
7.738,-0.078
7.74,-0.083
7.742,-0.093
7.744,-0.098
7.746,-0.088
7.748,-0.083
7.75,-0.083
7.752,-0.078
7.754,-0.063
7.756,-0.059
7.758,-0.059
7.76,-0.054
7.762,-0.059
7.764,-0.059
7.766,-0.059
7.768,-0.059
7.77,-0.068
7.772,-0.059
7.774,-0.059
7.776,-0.063
7.778,-0.063
7.78,-0.063
7.782,-0.073
7.784,-0.073
7.786,-0.073
7.788,-0.063
7.79,-0.068
7.792,-0.078
7.794,-0.083
7.796,-0.088
7.798,-0.093
7.8,-0.098
7.802,-0.088
7.804,-0.078
7.806,-0.083
7.808,-0.059
7.81,-0.073
7.812,-0.078
7.814,-0.083
7.816,-0.088
7.818,-0.093
7.82,-0.093
7.822,-0.093
7.824,-0.093
7.826,-0.098
7.828,-0.112
7.83,-0.093
7.832,-0.102
7.834,-0.132
7.836,-0.137
7.838,-0.137
7.84,-0.151
7.842,-0.146
7.844,-0.137
7.846,-0.127
7.848,-0.122
7.85,-0.112
7.852,-0.112
7.854,-0.102
7.856,-0.093
7.858,-0.102
7.86,-0.107
7.862,-0.117
7.864,-0.117
7.866,-0.122
7.868,-0.122
7.87,-0.122
7.872,-0.122
7.874,-0.112
7.876,-0.127
7.878,-0.127
7.88,-0.127
7.882,-0.132
7.884,-0.122
7.886,-0.112
7.888,-0.122
7.89,-0.132
7.892,-0.146
7.894,-0.146
7.896,-0.132
7.898,-0.142
7.9,-0.156
7.902,-0.146
7.904,-0.137
7.906,-0.127
7.908,-0.137
7.91,-0.142
7.912,-0.142
7.914,-0.137
7.916,-0.137
7.918,-0.142
7.92,-0.142
7.922,-0.151
7.924,-0.151
7.926,-0.146
7.928,-0.146
7.93,-0.151
7.932,-0.151
7.934,-0.151
7.936,-0.151
7.938,-0.171
7.94,-0.19
7.942,-0.205
7.944,-0.215
7.946,-0.19
7.948,-0.171
7.95,-0.151
7.952,-0.132
7.954,-0.112
7.956,-0.102
7.958,-0.093
7.96,-0.088
7.962,-0.098
7.964,-0.102
7.966,-0.102
7.968,-0.102
7.97,-0.112
7.972,-0.112
7.974,-0.117
7.976,-0.122
7.978,-0.112
7.98,-0.112
7.982,-0.117
7.984,-0.122
7.986,-0.122
7.988,-0.122
7.99,-0.122
7.992,-0.122
7.994,-0.107
7.996,-0.107
7.998,-0.102
8.0,-0.102
8.002,-0.107
8.004,-0.093
8.006,-0.088
8.008,-0.098
8.01,-0.102
8.012,-0.107
8.014,-0.112
8.016,-0.117
8.018,-0.127
8.02,-0.127
8.022,-0.127
8.024,-0.127
8.026,-0.142
8.028,-0.146
8.03,-0.151
8.032,-0.156
8.034,-0.127
8.036,-0.107
8.038,-0.088
8.04,-0.068
8.042,-0.063
8.044,-0.059
8.046,-0.054
8.048,-0.049
8.05,-0.054
8.052,-0.059
8.054,-0.063
8.056,-0.068
8.058,-0.078
8.06,-0.078
8.062,-0.078
8.064,-0.078
8.066,-0.088
8.068,-0.088
8.07,-0.088
8.072,-0.088
8.074,-0.098
8.076,-0.098
8.078,-0.098
8.08,-0.098
8.082,-0.107
8.084,-0.107
8.086,-0.107
8.088,-0.107
8.09,-0.093
8.092,-0.078
8.094,-0.063
8.096,-0.054
8.098,-0.024
8.1,-0.02
8.102,-0.01
8.104,0.0
8.106,0.01
8.108,0.01
8.11,0.0
8.112,-0.01
8.114,-0.015
8.116,-0.015
8.118,-0.01
8.12,-0.015
8.122,-0.024
8.124,-0.024
8.126,-0.02
8.128,-0.02
8.13,-0.02
8.132,0.0
8.134,0.005
8.136,0.01
8.138,0.0
8.14,0.0
8.142,0.005
8.144,0.005
8.146,0.0
8.148,-0.01
8.15,-0.02
8.152,-0.024
8.154,-0.02
8.156,-0.015
8.158,-0.015
8.16,-0.02
8.162,-0.02
8.164,-0.01
8.166,-0.01
8.168,-0.024
8.17,-0.029
8.172,-0.034
8.174,-0.049
8.176,-0.063
8.178,-0.083
8.18,-0.073
8.182,-0.078
8.184,-0.107
8.186,-0.107
8.188,-0.107
8.19,-0.098
8.192,-0.098
8.194,-0.112
8.196,-0.112
8.198,-0.112
8.2,-0.122
8.202,-0.122
8.204,-0.122
8.206,-0.122
8.208,-0.122
8.21,-0.127
8.212,-0.137
8.214,-0.151
8.216,-0.176
8.218,-0.166
8.22,-0.156
8.222,-0.166
8.224,-0.146
8.226,-0.127
8.228,-0.117
8.23,-0.112
8.232,-0.102
8.234,-0.107
8.236,-0.098
8.238,-0.098
8.24,-0.122
8.242,-0.151
8.244,-0.156
8.246,-0.146
8.248,-0.142
8.25,-0.102
8.252,-0.059
8.254,-0.024
8.256,0.02
8.258,0.102
8.26,0.21
8.262,0.312
8.264,0.395
8.266,0.449
8.268,0.527
8.27,0.6
8.272,0.6
8.274,0.527
8.276,0.449
8.278,0.346
8.28,0.215
8.282,0.083
8.284,-0.024
8.286,-0.117
8.288,-0.224
8.29,-0.298
8.292,-0.327
8.294,-0.337
8.296,-0.298
8.298,-0.239
8.3,-0.229
8.302,-0.224
8.304,-0.185
8.306,-0.156
8.308,-0.127
8.31,-0.122
8.312,-0.142
8.314,-0.151
8.316,-0.107
8.318,-0.059
8.32,-0.068
8.322,-0.078
8.324,-0.098
8.326,-0.122
8.328,-0.117
8.33,-0.112
8.332,-0.107
8.334,-0.083
8.336,-0.068
8.338,-0.068
8.34,-0.073
8.342,-0.073
8.344,-0.088
8.346,-0.102
8.348,-0.107
8.35,-0.112
8.352,-0.107
8.354,-0.112
8.356,-0.117
8.358,-0.122
8.36,-0.102
8.362,-0.093
8.364,-0.073
8.366,-0.054
8.368,-0.083
8.37,-0.088
8.372,-0.063
8.374,-0.068
8.376,-0.063
8.378,-0.068
8.38,-0.078
8.382,-0.083
8.384,-0.083
8.386,-0.083
8.388,-0.083
8.39,-0.073
8.392,-0.059
8.394,-0.059
8.396,-0.059
8.398,-0.059
8.4,-0.063
8.402,-0.073
8.404,-0.078
8.406,-0.073
8.408,-0.083
8.41,-0.068
8.412,-0.063
8.414,-0.059
8.416,-0.059
8.418,-0.059
8.42,-0.049
8.422,-0.049
8.424,-0.059
8.426,-0.078
8.428,-0.088
8.43,-0.078
8.432,-0.083
8.434,-0.083
8.436,-0.088
8.438,-0.088
8.44,-0.098
8.442,-0.088
8.444,-0.083
8.446,-0.083
8.448,-0.049
8.45,-0.034
8.452,-0.015
8.454,0.0
8.456,0.0
8.458,0.01
8.46,0.005
8.462,0.0
8.464,-0.01
8.466,-0.024
8.468,-0.024
8.47,-0.02
8.472,-0.005
8.474,-0.005
8.476,0.0
8.478,0.0
8.48,0.0
8.482,0.0
8.484,0.01
8.486,0.01
8.488,0.01
8.49,0.015
8.492,0.024
8.494,0.024
8.496,0.034
8.498,0.054
8.5,0.054
8.502,0.049
8.504,0.039
8.506,0.063
8.508,0.078
8.51,0.078
8.512,0.083
8.514,0.078
8.516,0.073
8.518,0.088
8.52,0.088
8.522,0.078
8.524,0.073
8.526,0.073
8.528,0.078
8.53,0.083
8.532,0.088
8.534,0.102
8.536,0.107
8.538,0.122
8.54,0.127
8.542,0.146
8.544,0.156
8.546,0.151
8.548,0.161
8.55,0.171
8.552,0.166
8.554,0.176
8.556,0.171
8.558,0.176
8.56,0.171
8.562,0.156
8.564,0.142
8.566,0.132
8.568,0.142
8.57,0.151
8.572,0.137
8.574,0.127
8.576,0.122
8.578,0.117
8.58,0.112
8.582,0.083
8.584,0.107
8.586,0.093
8.588,0.083
8.59,0.083
8.592,0.068
8.594,0.063
8.596,0.063
8.598,0.044
8.6,0.029
8.602,0.029
8.604,0.015
8.606,0.01
8.608,-0.01
8.61,-0.015
8.612,-0.024
8.614,-0.024
8.616,-0.024
8.618,-0.029
8.62,-0.044
8.622,-0.044
8.624,-0.039
8.626,-0.054
8.628,-0.063
8.63,-0.068
8.632,-0.063
8.634,-0.059
8.636,-0.068
8.638,-0.073
8.64,-0.068
8.642,-0.063
8.644,-0.063
8.646,-0.068
8.648,-0.073
8.65,-0.078
8.652,-0.083
8.654,-0.088
8.656,-0.078
8.658,-0.078
8.66,-0.078
8.662,-0.073
8.664,-0.073
8.666,-0.083
8.668,-0.083
8.67,-0.073
8.672,-0.068
8.674,-0.078
8.676,-0.083
8.678,-0.083
8.68,-0.078
8.682,-0.073
8.684,-0.068
8.686,-0.063
8.688,-0.073
8.69,-0.063
8.692,-0.063
8.694,-0.063
8.696,-0.083
8.698,-0.088
8.7,-0.093
8.702,-0.098
8.704,-0.088
8.706,-0.078
8.708,-0.068
8.71,-0.059
8.712,-0.059
8.714,-0.054
8.716,-0.044
8.718,-0.044
8.72,-0.034
8.722,-0.044
8.724,-0.049
8.726,-0.049
8.728,-0.044
8.73,-0.054
8.732,-0.068
8.734,-0.078
8.736,-0.078
8.738,-0.073
8.74,-0.073
8.742,-0.073
8.744,-0.063
8.746,-0.063
8.748,-0.068
8.75,-0.068
8.752,-0.054
8.754,-0.054
8.756,-0.059
8.758,-0.059
8.76,-0.049
8.762,-0.049
8.764,-0.054
8.766,-0.054
8.768,-0.044
8.77,-0.039
8.772,-0.034
8.774,-0.029
8.776,-0.044
8.778,-0.039
8.78,-0.044
8.782,-0.054
8.784,-0.059
8.786,-0.063
8.788,-0.078
8.79,-0.083
8.792,-0.063
8.794,-0.044
8.796,-0.039
8.798,-0.039
8.8,-0.029
8.802,-0.029
8.804,-0.029
8.806,-0.029
8.808,-0.02
8.81,-0.02
8.812,-0.034
8.814,-0.02
8.816,-0.029
8.818,-0.029
8.82,-0.029
8.822,-0.029
8.824,-0.024
8.826,-0.024
8.828,-0.024
8.83,-0.024
8.832,-0.039
8.834,-0.054
8.836,-0.034
8.838,-0.044
8.84,-0.049
8.842,-0.039
8.844,-0.024
8.846,-0.024
8.848,-0.039
8.85,-0.039
8.852,-0.039
8.854,-0.044
8.856,-0.044
8.858,-0.044
8.86,-0.034
8.862,-0.024
8.864,-0.034
8.866,-0.039
8.868,-0.049
8.87,-0.049
8.872,-0.044
8.874,-0.044
8.876,-0.044
8.878,-0.044
8.88,-0.049
8.882,-0.068
8.884,-0.073
8.886,-0.078
8.888,-0.054
8.89,-0.034
8.892,-0.015
8.894,-0.015
8.896,-0.034
8.898,-0.049
8.9,-0.049
8.902,-0.034
8.904,-0.044
8.906,-0.059
8.908,-0.049
8.91,-0.039
8.912,-0.039
8.914,-0.049
8.916,-0.054
8.918,-0.054
8.92,-0.054
8.922,-0.059
8.924,-0.068
8.926,-0.073
8.928,-0.063
8.93,-0.063
8.932,-0.059
8.934,-0.059
8.936,-0.059
8.938,-0.054
8.94,-0.049
8.942,-0.044
8.944,-0.049
8.946,-0.054
8.948,-0.054
8.95,-0.049
8.952,-0.059
8.954,-0.063
8.956,-0.068
8.958,-0.073
8.96,-0.073
8.962,-0.073
8.964,-0.073
8.966,-0.078
8.968,-0.088
8.97,-0.093
8.972,-0.093
8.974,-0.093
8.976,-0.073
8.978,-0.054
8.98,-0.039
8.982,-0.024
8.984,-0.029
8.986,-0.034
8.988,-0.044
8.99,-0.054
8.992,-0.063
8.994,-0.063
8.996,-0.063
8.998,-0.063
9.0,-0.063
9.002,-0.068
9.004,-0.068
9.006,-0.073
9.008,-0.098
9.01,-0.102
9.012,-0.107
9.014,-0.098
9.016,-0.073
9.018,-0.059
9.02,-0.044
9.022,-0.029
9.024,-0.034
9.026,-0.039
9.028,-0.044
9.03,-0.049
9.032,-0.059
9.034,-0.059
9.036,-0.059
9.038,-0.059
9.04,-0.059
9.042,-0.059
9.044,-0.059
9.046,-0.059
9.048,-0.068
9.05,-0.068
9.052,-0.068
9.054,-0.068
9.056,-0.078
9.058,-0.078
9.06,-0.078
9.062,-0.078
9.064,-0.078
9.066,-0.078
9.068,-0.078
9.07,-0.078
9.072,-0.083
9.074,-0.088
9.076,-0.093
9.078,-0.098
9.08,-0.088
9.082,-0.088
9.084,-0.088
9.086,-0.088
9.088,-0.083
9.09,-0.078
9.092,-0.073
9.094,-0.068
9.096,-0.059
9.098,-0.059
9.1,-0.059
9.102,-0.059
9.104,-0.059
9.106,-0.059
9.108,-0.059
9.11,-0.059
9.112,-0.049
9.114,-0.049
9.116,-0.039
9.118,-0.029
9.12,-0.034
9.122,-0.02
9.124,-0.02
9.126,-0.015
9.128,-0.02
9.13,-0.01
9.132,-0.01
9.134,-0.02
9.136,-0.039
9.138,-0.029
9.14,-0.024
9.142,-0.015
9.144,-0.034
9.146,-0.054
9.148,-0.063
9.15,-0.068
9.152,-0.054
9.154,-0.039
9.156,-0.005
9.158,0.015
9.16,0.024
9.162,0.029
9.164,0.034
9.166,0.044
9.168,0.049
9.17,0.054
9.172,0.054
9.174,0.054
9.176,0.039
9.178,0.029
9.18,0.02
9.182,0.005
9.184,-0.024
9.186,-0.029
9.188,-0.024
9.19,-0.029
9.192,-0.039
9.194,-0.049
9.196,-0.049
9.198,-0.059
9.2,-0.073
9.202,-0.088
9.204,-0.073
9.206,-0.073
9.208,-0.088
9.21,-0.098
9.212,-0.098
9.214,-0.088
9.216,-0.088
9.218,-0.102
9.22,-0.102
9.222,-0.102
9.224,-0.122
9.226,-0.132
9.228,-0.142
9.23,-0.151
9.232,-0.132
9.234,-0.112
9.236,-0.098
9.238,-0.088
9.24,-0.098
9.242,-0.098
9.244,-0.098
9.246,-0.117
9.248,-0.117
9.25,-0.107
9.252,-0.107
9.254,-0.112
9.256,-0.112
9.258,-0.127
9.26,-0.127
9.262,-0.117
9.264,-0.132
9.266,-0.151
9.268,-0.146
9.27,-0.137
9.272,-0.122
9.274,-0.102
9.276,-0.059
9.278,0.005
9.28,0.059
9.282,0.102
9.284,0.229
9.286,0.351
9.288,0.434
9.29,0.517
9.292,0.605
9.294,0.61
9.296,0.59
9.298,0.527
9.3,0.41
9.302,0.288
9.304,0.195
9.306,0.112
9.308,0.015
9.31,-0.068
9.312,-0.176
9.314,-0.268
9.316,-0.288
9.318,-0.268
9.32,-0.249
9.322,-0.22
9.324,-0.181
9.326,-0.185
9.328,-0.156
9.33,-0.107
9.332,-0.107
9.334,-0.112
9.336,-0.073
9.338,-0.063
9.34,-0.098
9.342,-0.098
9.344,-0.083
9.346,-0.078
9.348,-0.083
9.35,-0.093
9.352,-0.088
9.354,-0.083
9.356,-0.078
9.358,-0.054
9.36,-0.044
9.362,-0.049
9.364,-0.059
9.366,-0.063
9.368,-0.063
9.37,-0.073
9.372,-0.073
9.374,-0.073
9.376,-0.063
9.378,-0.063
9.38,-0.063
9.382,-0.063
9.384,-0.078
9.386,-0.093
9.388,-0.098
9.39,-0.102
9.392,-0.107
9.394,-0.098
9.396,-0.059
9.398,-0.049
9.4,-0.029
9.402,-0.029
9.404,-0.034
9.406,-0.034
9.408,-0.044
9.41,-0.054
9.412,-0.063
9.414,-0.063
9.416,-0.059
9.418,-0.059
9.42,-0.059
9.422,-0.059
9.424,-0.054
9.426,-0.054
9.428,-0.049
9.43,-0.034
9.432,-0.059
9.434,-0.049
9.436,-0.049
9.438,-0.049
9.44,-0.049
9.442,-0.049
9.444,-0.039
9.446,-0.039
9.448,-0.039
9.45,-0.059
9.452,-0.068
9.454,-0.059
9.456,-0.054
9.458,-0.054
9.46,-0.059
9.462,-0.059
9.464,-0.034
9.466,-0.01
9.468,0.01
9.47,0.024
9.472,0.039
9.474,0.034
9.476,0.034
9.478,0.029
9.48,0.034
9.482,0.039
9.484,0.029
9.486,0.02
9.488,0.029
9.49,0.015
9.492,0.015
9.494,0.02
9.496,0.015
9.498,0.015
9.5,0.02
9.502,0.02
9.504,0.01
9.506,0.01
9.508,0.02
9.51,0.02
9.512,0.034
9.514,0.044
9.516,0.059
9.518,0.063
9.52,0.068
9.522,0.093
9.524,0.098
9.526,0.098
9.528,0.088
9.53,0.112
9.532,0.127
9.534,0.127
9.536,0.142
9.538,0.137
9.54,0.132
9.542,0.146
9.544,0.156
9.546,0.146
9.548,0.142
9.55,0.142
9.552,0.146
9.554,0.151
9.556,0.156
9.558,0.171
9.56,0.161
9.562,0.161
9.564,0.151
9.566,0.156
9.568,0.166
9.57,0.161
9.572,0.171
9.574,0.181
9.576,0.19
9.578,0.205
9.58,0.205
9.582,0.215
9.584,0.205
9.586,0.195
9.588,0.185
9.59,0.181
9.592,0.181
9.594,0.19
9.596,0.176
9.598,0.166
9.6,0.176
9.602,0.176
9.604,0.176
9.606,0.151
9.608,0.161
9.61,0.132
9.612,0.107
9.614,0.093
9.616,0.093
9.618,0.093
9.62,0.098
9.622,0.083
9.624,0.078
9.626,0.078
9.628,0.063
9.63,0.059
9.632,0.044
9.634,0.044
9.636,0.039
9.638,0.044
9.64,0.034
9.642,0.029
9.644,0.015
9.646,0.015
9.648,0.01
9.65,-0.005
9.652,-0.015
9.654,-0.02
9.656,-0.015
9.658,-0.01
9.66,-0.02
9.662,-0.024
9.664,-0.024
9.666,-0.024
9.668,-0.029
9.67,-0.039
9.672,-0.015
9.674,-0.01
9.676,-0.005
9.678,0.0
9.68,-0.01
9.682,-0.01
9.684,-0.01
9.686,-0.005
9.688,-0.005
9.69,-0.015
9.692,-0.015
9.694,-0.005
9.696,0.0
9.698,-0.01
9.7,-0.015
9.702,-0.015
9.704,-0.02
9.706,-0.024
9.708,-0.029
9.71,-0.034
9.712,-0.054
9.714,-0.044
9.716,-0.044
9.718,-0.044
9.72,-0.049
9.722,-0.049
9.724,-0.049
9.726,-0.049
9.728,-0.029
9.73,-0.01
9.732,0.01
9.734,0.029
9.736,0.024
9.738,0.024
9.74,0.029
9.742,0.024
9.744,0.034
9.746,0.024
9.748,0.02
9.75,0.02
9.752,0.044
9.754,0.044
9.756,0.039
9.758,0.039
9.76,0.049
9.762,0.054
9.764,0.054
9.766,0.054
9.768,0.044
9.77,0.044
9.772,0.039
9.774,0.039
9.776,0.044
9.778,0.044
9.78,0.039
9.782,0.039
9.784,0.063
9.786,0.068
9.788,0.068
9.79,0.073
9.792,0.063
9.794,0.059
9.796,0.054
9.798,0.049
9.8,0.054
9.802,0.068
9.804,0.073
9.806,0.073
9.808,0.073
9.81,0.073
9.812,0.063
9.814,0.063
9.816,0.068
9.818,0.083
9.82,0.083
9.822,0.078
9.824,0.068
9.826,0.068
9.828,0.068
9.83,0.068
9.832,0.063
9.834,0.059
9.836,0.039
9.838,0.049
9.84,0.054
9.842,0.059
9.844,0.063
9.846,0.068
9.848,0.068
9.85,0.073
9.852,0.078
9.854,0.083
9.856,0.078
9.858,0.063
9.86,0.083
9.862,0.073
9.864,0.059
9.866,0.068
9.868,0.083
9.87,0.083
9.872,0.068
9.874,0.068
9.876,0.068
9.878,0.063
9.88,0.054
9.882,0.044
9.884,0.044
9.886,0.044
9.888,0.049
9.89,0.049
9.892,0.044
9.894,0.049
9.896,0.063
9.898,0.073
9.9,0.083
9.902,0.093
9.904,0.083
9.906,0.059
9.908,0.049
9.91,0.039
9.912,0.049
9.914,0.063
9.916,0.078
9.918,0.073
9.92,0.063
9.922,0.049
9.924,0.049
9.926,0.063
9.928,0.063
9.93,0.049
9.932,0.059
9.934,0.068
9.936,0.078
9.938,0.068
9.94,0.063
9.942,0.063
9.944,0.059
9.946,0.059
9.948,0.054
9.95,0.054
9.952,0.063
9.954,0.063
9.956,0.068
9.958,0.068
9.96,0.059
9.962,0.054
9.964,0.049
9.966,0.044
9.968,0.054
9.97,0.054
9.972,0.059
9.974,0.068
9.976,0.068
9.978,0.063
9.98,0.059
9.982,0.054
9.984,0.059
9.986,0.054
9.988,0.049
9.99,0.039
9.992,0.029
9.994,0.015
9.996,0.034
9.998,0.054
